"type","name","time_units","begin_time","frequency","count","units"
"signal","Ultium EMG-EXT.DIG. RT","s",175.98000,2000,22000,"uV"

"time","value"
175.98000,34.06677287
175.98050,28.26807912
175.98100,33.15118965
175.98150,30.09924557
175.98200,9.346025847
175.98250,-11.10199947
175.98300,-7.134472168
175.98350,19.4174413
175.98400,41.08624425
175.98450,40.78104984
175.98500,27.96288472
175.98550,19.72263571
175.98600,17.28108045
175.98650,15.75510841
175.98700,15.14471959
175.98750,14.53433078
175.98800,8.430442624
175.98850,-1.946167238
175.98900,-7.744860984
175.98950,-8.050055392
175.99000,-14.45913795
175.99050,-26.05652545
175.99100,-24.83574782
175.99150,-3.166944868
175.99200,18.50185808
175.99250,21.24860775
175.99300,12.39796992
175.99350,10.56680348
175.99400,15.449914
175.99450,15.75510841
175.99500,9.346025847
175.99550,2.021360063
175.99600,-2.556556053
175.99650,-1.335778422
175.99700,8.125248217
175.99750,16.97588604
175.99800,6.599276178
175.99850,-26.05652545
175.99900,-59.9331047
175.99950,-76.41360272
176.00000,-77.63438035
176.00050,-76.10840831
176.00100,-76.41360272
176.00150,-78.54996357
176.00200,-77.32918594
176.00250,-53.52402214
176.00300,6.29408177
176.00350,75.87840673
176.00400,105.7874587
176.00450,85.64462777
176.00500,59.70310312
176.00550,60.00829753
176.00600,62.14465838
176.00650,35.59274491
176.00700,1.105776839
176.00750,-0.1150007913
176.00800,31.01482879
176.00850,54.81999259
176.00900,53.29402056
176.00950,43.2226051
176.01000,38.33949458
176.01050,29.18366235
176.01100,8.430442624
176.01150,-11.71238828
176.01200,-17.51108203
176.01250,-8.660444207
176.01300,2.32655447
176.01350,6.599276178
176.01400,2.021360063
176.01450,-4.998111315
176.01500,-8.965638615
176.01550,-11.71238828
176.01600,-18.12147085
176.01650,-26.66691426
176.01700,-29.10846952
176.01750,-25.44613663
176.01800,-26.05652545
176.01850,-30.02405275
176.01900,-25.44613663
176.01950,-10.49161065
176.02000,-2.251361645
176.02050,-10.79680506
176.02100,-21.47860933
176.02150,-19.34224848
176.02200,-17.51108203
176.02250,-37.65391294
176.02300,-72.14088101
176.02350,-88.31618462
176.02400,-69.69932575
176.02450,-35.82274649
176.02500,-14.15394355
176.02550,-10.18641625
176.02600,-9.881221838
176.02650,-5.60850013
176.02700,-0.420195199
176.02750,-0.1150007913
176.02800,-4.387722499
176.02850,-9.57602743
176.02900,-15.06952677
176.02950,-19.95263729
176.03000,-22.39419255
176.03050,-20.86822052
176.03100,-15.98510999
176.03150,-8.355249799
176.03200,1.105776839
176.03250,12.39796992
176.03300,21.24860775
176.03350,24.91094064
176.03400,24.30055182
176.03450,22.46938538
176.03500,20.02783012
176.03550,16.06030282
176.03600,5.988887363
176.03650,-16.2903044
176.03700,-52.91363332
176.03750,-86.79021258
176.03800,-95.03046159
176.03850,-76.10840831
176.03900,-57.79674385
176.03950,-61.45907674
176.04000,-71.22529779
176.04050,-59.01752148
176.04100,-25.75133104
176.04150,9.346025847
176.04200,51.76804852
176.04250,123.1835399
176.04300,205.8912244
176.04350,238.2418316
176.04400,184.2224215
176.04450,83.50826692
176.04500,1.716165655
176.04550,-38.56949616
176.04600,-56.57596622
176.04650,-59.32271589
176.04700,-34.90716327
176.04750,9.956414663
176.04800,39.2550778
176.04850,27.96288472
176.04900,-12.93316591
176.04950,-57.49154944
176.05000,-91.36812869
176.05050,-112.7317372
176.05100,-118.530431
176.05150,-110.290182
176.05200,-97.47201685
176.05250,-88.62137902
176.05300,-77.63438035
176.05350,-55.04999418
176.05400,-20.86822052
176.05450,13.31355315
176.05500,36.81352254
176.05550,43.83299392
176.05600,34.67716169
176.05650,21.55380216
176.05700,26.13171827
176.05750,60.92388075
176.05800,107.6186251
176.05850,130.5082057
176.05900,113.4173189
176.05950,76.79398995
176.06000,53.59921496
176.06050,52.68363174
176.06100,59.0927143
176.06150,57.87193667
176.06200,46.57974359
176.06250,31.93041202
176.06300,19.72263571
176.06350,13.00835874
176.06400,11.17719229
176.06450,9.956414663
176.06500,6.599276178
176.06550,3.547332101
176.06600,0.1901936164
176.06650,-8.355249799
176.06700,-23.00458137
176.06750,-31.85521919
176.06800,-26.66691426
176.06850,-15.37472118
176.06900,-10.18641625
176.06950,-9.270833022
176.07000,-2.861750461
176.07050,5.683692955
176.07100,7.514859401
176.07150,4.768109732
176.07200,8.125248217
176.07250,13.61874756
176.07300,6.599276178
176.07350,-12.62797151
176.07400,-29.71885834
176.07450,-35.51755208
176.07500,-35.82274649
176.07550,-34.90716327
176.07600,-32.77080242
176.07650,-33.38119123
176.07700,-41.31624583
176.07750,-48.0305228
176.07800,-39.79027379
176.07850,-18.42666525
176.07900,0.8005824318
176.07950,12.09277552
176.08000,22.46938538
176.08050,33.45638406
176.08100,39.56027221
176.08150,43.83299392
176.08200,54.51479819
176.08250,70.38490739
176.08300,84.11865573
176.08350,92.66409915
176.08400,89.61215507
176.08450,57.87193667
176.08500,-6.218888945
176.08550,-69.08893693
176.08600,-91.6733231
176.08650,-76.10840831
176.08700,-54.74479977
176.08750,-44.0629955
176.08800,-39.17988498
176.08850,-41.92663465
176.08900,-54.43960536
176.08950,-51.9980501
176.09000,-5.303305722
176.09050,62.7550472
176.09100,94.19007119
176.09150,68.85893535
176.09200,27.65769031
176.09250,9.956414663
176.09300,6.599276178
176.09350,-2.861750461
176.09400,-12.3227771
176.09450,-5.913694538
176.09500,7.514859401
176.09550,9.956414663
176.09600,0.8005824318
176.09650,-8.660444207
176.09700,-12.01758269
176.09750,-5.913694538
176.09800,11.78758111
176.09850,29.79405116
176.09900,27.04730149
176.09950,0.4953880241
176.10000,-26.97210867
176.10050,-38.26430175
176.10100,-39.79027379
176.10150,-47.11493958
176.10200,-59.01752148
176.10250,-64.51102082
176.10300,-60.84868792
176.10350,-50.47207806
176.10400,-33.38119123
176.10450,-12.3227771
176.10500,1.410971247
176.10550,0.1901936164
176.10600,-9.270833022
176.10650,-14.15394355
176.10700,-10.49161065
176.10750,-7.134472168
176.10800,-8.660444207
176.10850,-5.913694538
176.10900,10.87199789
176.10950,36.20313373
176.11000,51.1576597
176.11050,45.35896596
176.11100,29.48885676
176.11150,18.50185808
176.11200,12.70316433
176.11250,1.716165655
176.11300,-18.73185966
176.11350,-42.53702346
176.11400,-60.84868792
176.11450,-66.64738167
176.11500,-55.66038299
176.11550,-34.29677445
176.11600,-16.59549881
176.11650,-7.744860984
176.11700,9.651220255
176.11750,51.46285411
176.11800,100.5991538
176.11850,117.3848462
176.11900,88.69657185
176.11950,44.13818833
176.12000,18.80705249
176.12050,13.31355315
176.12100,5.988887363
176.12150,-10.49161065
176.12200,-24.83574782
176.12250,-28.1928863
176.12300,-27.58249748
176.12350,-29.41366393
176.12400,-27.27730308
176.12450,-12.3227771
176.12500,6.599276178
176.12550,13.61874756
176.12600,5.378498547
176.12650,-2.861750461
176.12700,-1.335778422
176.12750,2.631748878
176.12800,0.1901936164
176.12850,-2.861750461
176.12900,4.768109732
176.12950,22.77457979
176.13000,38.94988339
176.13050,49.32649326
176.13100,56.65115904
176.13150,52.68363174
176.13200,27.3524959
176.13250,-9.881221838
176.13300,-32.46560801
176.13350,-30.63444156
176.13400,-21.47860933
176.13450,-19.64744288
176.13500,-16.2903044
176.13550,2.32655447
176.13600,32.84599524
176.13650,61.22907516
176.13700,79.23554521
176.13750,81.98229488
176.13800,66.41738009
176.13850,38.94988339
176.13900,18.50185808
176.13950,13.00835874
176.14000,9.651220255
176.14050,-3.472139276
176.14100,-16.90069321
176.14150,-15.98510999
176.14200,-8.660444207
176.14250,-16.90069321
176.14300,-42.84221787
176.14350,-64.20582641
176.14400,-64.20582641
176.14450,-48.94610602
176.14500,-33.38119123
176.14550,-23.00458137
176.14600,-15.06952677
176.14650,-8.965638615
176.14700,-4.387722499
176.14750,-1.64097283
176.14800,0.4953880241
176.14850,0.1901936164
176.14900,-3.166944868
176.14950,-8.355249799
176.15000,-12.93316591
176.15050,-17.51108203
176.15100,-23.92016459
176.15150,-29.10846952
176.15200,-29.41366393
176.15250,-22.69938696
176.15300,-11.10199947
176.15350,1.410971247
176.15400,9.651220255
176.15450,10.56680348
176.15500,7.209664994
176.15550,7.514859401
176.15600,14.53433078
176.15650,20.63821893
176.15700,16.06030282
176.15750,1.716165655
176.15800,-11.40719388
176.15850,-16.90069321
176.15900,-17.81627644
176.15950,-20.56302611
176.16000,-26.97210867
176.16050,-37.95910735
176.16100,-58.40713266
176.16150,-85.26424054
176.16200,-101.4395441
176.16250,-92.58890632
176.16300,-66.95257608
176.16350,-45.28377313
176.16400,-34.29677445
176.16450,-18.42666525
176.16500,12.39796992
176.16550,49.02129885
176.16600,73.13165706
176.16650,83.20307251
176.16700,86.560211
176.16750,85.94982218
176.16800,76.79398995
176.16850,60.61868634
176.16900,46.27454918
176.16950,38.94988339
176.17000,34.98235609
176.17050,30.70963439
176.17100,26.13171827
176.17150,22.16419097
176.17200,17.28108045
176.17250,11.17719229
176.17300,3.852526509
176.17350,-4.082528091
176.17400,-10.79680506
176.17450,-12.93316591
176.17500,-13.23836032
176.17550,-23.92016459
176.17600,-48.94610602
176.17650,-72.44607542
176.17700,-72.14088101
176.17750,-46.80974517
176.17800,-14.76433236
176.17850,6.599276178
176.17900,16.06030282
176.17950,18.50185808
176.18000,15.14471959
176.18050,7.820053809
176.18100,3.242137693
176.18150,4.462915324
176.18200,4.462915324
176.18250,-4.082528091
176.18300,-17.51108203
176.18350,-23.30977578
176.18400,-16.59549881
176.18450,-7.744860984
176.18500,-8.660444207
176.18550,-19.34224848
176.18600,-29.41366393
176.18650,-30.93963597
176.18700,-25.75133104
176.18750,-17.51108203
176.18800,-7.134472168
176.18850,2.631748878
176.18900,2.021360063
176.18950,-9.881221838
176.19000,-17.51108203
176.19050,-5.913694538
176.19100,11.4823867
176.19150,10.26160907
176.19200,-6.829277761
176.19250,-12.62797151
176.19300,3.547332101
176.19350,21.24860775
176.19400,25.21613505
176.19450,31.62521761
176.19500,52.07324293
176.19550,65.80699127
176.19600,46.57974359
176.19650,7.514859401
176.19700,-19.03705407
176.19750,-24.83574782
176.19800,-26.97210867
176.19850,-33.68638564
176.19900,-37.95910735
176.19950,-33.38119123
176.20000,-14.76433236
176.20050,27.65769031
176.20100,89.00176626
176.20150,132.0341777
176.20200,121.6575679
176.20250,70.6901018
176.20300,25.82652386
176.20350,8.430442624
176.20400,2.32655447
176.20450,-6.524083353
176.20500,-11.10199947
176.20550,-5.60850013
176.20600,-2.861750461
176.20650,-6.218888945
176.20700,1.105776839
176.20750,28.57327353
176.20800,51.76804852
176.20850,40.78104984
176.20900,-0.420195199
176.20950,-36.1279409
176.21000,-36.43313531
176.21050,-5.913694538
176.21100,26.74210709
176.21150,37.72910576
176.21200,26.43691268
176.21250,8.735637032
176.21300,-1.64097283
176.21350,-4.387722499
176.21400,-5.303305722
176.21450,-8.660444207
176.21500,-13.84874914
176.21550,-18.73185966
176.21600,-18.73185966
176.21650,-11.40719388
176.21700,-3.166944868
176.21750,-4.998111315
176.21800,-19.64744288
176.21850,-32.77080242
176.21900,-29.41366393
176.21950,-13.54355473
176.22000,-3.472139276
176.22050,-8.050055392
176.22100,-16.59549881
176.22150,-17.51108203
176.22200,-13.54355473
176.22250,-12.93316591
176.22300,-12.01758269
176.22350,-2.251361645
176.22400,11.17719229
176.22450,8.430442624
176.22500,-17.51108203
176.22550,-48.94610602
176.22600,-63.59543759
176.22650,-57.18635503
176.22700,-36.73832972
176.22750,-5.60850013
176.22800,32.23560643
176.22850,62.7550472
176.22900,74.6576291
176.22950,72.21607383
176.23000,63.97582483
176.23050,47.49532681
176.23100,22.46938538
176.23150,6.29408177
176.23200,7.209664994
176.23250,-0.1150007913
176.23300,-49.25130043
176.23350,-121.8875695
176.23400,-158.205704
176.23450,-129.2122352
176.23500,-70.61490897
176.23550,-34.29677445
176.23600,-30.32924715
176.23650,-34.60196886
176.23700,-30.93963597
176.23750,-22.69938696
176.23800,-15.98510999
176.23850,-9.881221838
176.23900,-3.472139276
176.23950,1.410971247
176.24000,3.852526509
176.24050,1.716165655
176.24100,-8.050055392
176.24150,-24.83574782
176.24200,-36.73832972
176.24250,-30.02405275
176.24300,-0.7253896067
176.24350,37.42391136
176.24400,61.53426956
176.24450,58.48232549
176.24500,40.47585543
176.24550,30.70963439
176.24600,33.15118965
176.24650,29.48885676
176.24700,11.17719229
176.24750,-3.166944868
176.24800,3.547332101
176.24850,19.4174413
176.24900,22.16419097
176.24950,14.53433078
176.25000,15.75510841
176.25050,24.60574623
176.25100,20.33302452
176.25150,1.716165655
176.25200,-6.218888945
176.25250,8.125248217
176.25300,25.21613505
176.25350,23.07977419
176.25400,10.56680348
176.25450,12.09277552
176.25500,32.54080083
176.25550,55.73557582
176.25600,64.58621364
176.25650,55.125187
176.25700,33.76157846
176.25750,10.56680348
176.25800,-6.829277761
176.25850,-17.51108203
176.25900,-26.36171985
176.25950,-33.07599682
176.26000,-32.77080242
176.26050,-24.225359
176.26100,-14.76433236
176.26150,-10.18641625
176.26200,-6.829277761
176.26250,-1.946167238
176.26300,1.105776839
176.26350,1.716165655
176.26400,4.768109732
176.26450,13.61874756
176.26500,23.07977419
176.26550,26.13171827
176.26600,23.99535742
176.26650,19.72263571
176.26700,11.4823867
176.26750,-1.946167238
176.26800,-16.90069321
176.26850,-29.10846952
176.26900,-39.79027379
176.26950,-50.16688365
176.27000,-55.35518859
176.27050,-49.55649484
176.27100,-36.1279409
176.27150,-23.00458137
176.27200,-15.06952677
176.27250,-11.10199947
176.27300,-5.913694538
176.27350,9.346025847
176.27400,37.11871695
176.27450,63.36543601
176.27500,66.11218568
176.27550,40.17066103
176.27600,6.599276178
176.27650,-9.57602743
176.27700,-6.524083353
176.27750,4.157720917
176.27800,13.92394196
176.27850,17.89146926
176.27900,10.56680348
176.27950,-8.050055392
176.28000,-25.44613663
176.28050,-25.44613663
176.28100,-11.40719388
176.28150,0.4953880241
176.28200,2.631748878
176.28250,2.32655447
176.28300,4.462915324
176.28350,-0.1150007913
176.28400,-22.08899815
176.28450,-54.13441095
176.28500,-76.71879712
176.28550,-75.8032139
176.28600,-52.30324451
176.28650,-20.86822052
176.28700,-0.1150007913
176.28750,0.8005824318
176.28800,-4.692916907
176.28850,10.26160907
176.28900,59.0927143
176.28950,118.6056238
176.29000,151.5666198
176.29050,146.0731205
176.29100,122.5731511
176.29150,100.9043482
176.29200,77.70957317
176.29250,44.13818833
176.29300,9.04083144
176.29350,-10.49161065
176.29400,-14.45913795
176.29450,-15.67991558
176.29500,-21.47860933
176.29550,-28.49808071
176.29600,-33.07599682
176.29650,-36.43313531
176.29700,-39.17988498
176.29750,-40.0954682
176.29800,-39.79027379
176.29850,-38.56949616
176.29900,-33.99158005
176.29950,-26.36171985
176.30000,-17.81627644
176.30050,-5.303305722
176.30100,19.4174413
176.30150,50.85246529
176.30200,64.89140805
176.30250,44.74857714
176.30300,2.631748878
176.30350,-35.21235768
176.30400,-56.88116062
176.30450,-64.81621522
176.30500,-62.37465996
176.30550,-54.74479977
176.30600,-49.86168925
176.30650,-43.45260668
176.30700,-16.90069321
176.30750,34.67716169
176.30800,81.67710047
176.30850,88.69657185
176.30900,59.70310312
176.30950,29.48885676
176.31000,17.58627486
176.31050,13.92394196
176.31100,7.209664994
176.31150,-0.1150007913
176.31200,-4.692916907
176.31250,-8.965638615
176.31300,-12.62797151
176.31350,-10.79680506
176.31400,-4.998111315
176.31450,-3.777333684
176.31500,-8.660444207
176.31550,-13.84874914
176.31600,-19.34224848
176.31650,-29.41366393
176.31700,-40.40066261
176.31750,-43.75780109
176.31800,-38.56949616
176.31850,-31.85521919
176.31900,-25.44613663
176.31950,-17.81627644
176.32000,-13.23836032
176.32050,-15.98510999
176.32100,-21.17341492
176.32150,-22.08899815
176.32200,-19.03705407
176.32250,-13.84874914
176.32300,-4.387722499
176.32350,5.683692955
176.32400,5.378498547
176.32450,-6.218888945
176.32500,-9.881221838
176.32550,5.988887363
176.32600,22.16419097
176.32650,10.87199789
176.32700,-21.47860933
176.32750,-43.14741228
176.32800,-37.04352412
176.32850,-16.90069321
176.32900,-3.472139276
176.32950,-0.1150007913
176.33000,0.4953880241
176.33050,5.07330414
176.33100,9.346025847
176.33150,3.852526509
176.33200,-13.23836032
176.33250,-30.93963597
176.33300,-35.51755208
176.33350,-28.1928863
176.33400,-19.64744288
176.33450,-7.744860984
176.33500,18.50185808
176.33550,53.29402056
176.33600,71.91087943
176.33650,63.36543601
176.33700,41.69663306
176.33750,19.72263571
176.33800,-5.913694538
176.33850,-36.43313531
176.33900,-63.29024319
176.33950,-87.7057958
176.34000,-119.1408198
176.34050,-142.3355948
176.34100,-120.3615974
176.34150,-46.80974517
176.34200,30.70963439
176.34250,62.7550472
176.34300,50.85246529
176.34350,28.57327353
176.34400,15.449914
176.34450,14.22913637
176.34500,27.04730149
176.34550,46.88493799
176.34600,51.1576597
176.34650,30.09924557
176.34700,5.988887363
176.34750,5.07330414
176.34800,20.94341334
176.34850,29.48885676
176.34900,25.82652386
176.34950,20.63821893
176.35000,16.36549722
176.35050,8.735637032
176.35100,3.547332101
176.35150,7.514859401
176.35200,11.4823867
176.35250,5.378498547
176.35300,-1.946167238
176.35350,0.8005824318
176.35400,7.209664994
176.35450,5.988887363
176.35500,9.651220255
176.35550,34.98235609
176.35600,67.0277689
176.35650,73.74204587
176.35700,51.1576597
176.35750,28.87846794
176.35800,23.3849686
176.35850,21.85899656
176.35900,11.17719229
176.35950,0.8005824318
176.36000,1.105776839
176.36050,3.242137693
176.36100,-5.60850013
176.36150,-20.56302611
176.36200,-28.1928863
176.36250,-27.27730308
176.36300,-30.63444156
176.36350,-48.64091162
176.36400,-74.88763068
176.36450,-88.31618462
176.36500,-74.88763068
176.36550,-43.75780109
176.36600,-22.08899815
176.36650,-18.73185966
176.36700,-12.62797151
176.36750,12.09277552
176.36800,38.03430017
176.36850,41.08624425
176.36900,36.50832813
176.36950,60.92388075
176.37000,111.5861524
176.37050,144.2419541
176.37100,132.6445666
176.37150,100.2939593
176.37200,74.6576291
176.37250,53.29402056
176.37300,27.96288472
176.37350,12.09277552
176.37400,16.36549722
176.37450,19.72263571
176.37500,-1.335778422
176.37550,-33.99158005
176.37600,-45.89416195
176.37650,-33.07599682
176.37700,-20.2578317
176.37750,-21.78380374
176.37800,-31.85521919
176.37850,-42.23182905
176.37900,-49.55649484
176.37950,-45.89416195
176.38000,-28.49808071
176.38050,-12.01758269
176.38100,-12.62797151
176.38150,-24.53055341
176.38200,-27.88769189
176.38250,-21.47860933
176.38300,-23.00458137
176.38350,-34.60196886
176.38400,-38.87469057
176.38450,-27.58249748
176.38500,-15.06952677
176.38550,-11.71238828
176.38600,-6.524083353
176.38650,10.26160907
176.38700,28.26807912
176.38750,31.62521761
176.38800,22.16419097
176.38850,13.00835874
176.38900,7.820053809
176.38950,0.8005824318
176.39000,-8.355249799
176.39050,-14.45913795
176.39100,-15.67991558
176.39150,-16.59549881
176.39200,-17.20588762
176.39250,-14.15394355
176.39300,-8.965638615
176.39350,-7.439666576
176.39400,-10.79680506
176.39450,-13.84874914
176.39500,-14.15394355
176.39550,-14.15394355
176.39600,-11.71238828
176.39650,-4.082528091
176.39700,4.157720917
176.39750,6.599276178
176.39800,6.29408177
176.39850,13.31355315
176.39900,25.21613505
176.39950,23.99535742
176.40000,2.936943286
176.40050,-19.34224848
176.40100,-25.14094222
176.40150,-21.17341492
176.40200,-23.30977578
176.40250,-28.49808071
176.40300,-22.69938696
176.40350,-7.134472168
176.40400,2.32655447
176.40450,1.410971247
176.40500,-0.1150007913
176.40550,2.32655447
176.40600,3.852526509
176.40650,2.936943286
176.40700,5.988887363
176.40750,9.346025847
176.40800,1.410971247
176.40850,-17.51108203
176.40900,-31.85521919
176.40950,-32.1604136
176.41000,-27.58249748
176.41050,-26.66691426
176.41100,-27.27730308
176.41150,-25.44613663
176.41200,-23.92016459
176.41250,-15.67991558
176.41300,13.92394196
176.41350,63.36543601
176.41400,100.9043482
176.41450,101.2095426
176.41500,75.87840673
176.41550,55.73557582
176.41600,51.46285411
176.41650,50.85246529
176.41700,45.66416036
176.41750,42.30702188
176.41800,42.91741069
176.41850,36.20313373
176.41900,13.61874756
176.41950,-14.76433236
176.42000,-33.99158005
176.42050,-39.79027379
176.42100,-40.0954682
176.42150,-42.23182905
176.42200,-47.42013399
176.42250,-55.04999418
176.42300,-66.95257608
176.42350,-80.68632442
176.42400,-90.14735106
176.42450,-88.62137902
176.42500,-73.36165864
176.42550,-45.89416195
176.42600,-11.10199947
176.42650,24.30055182
176.42700,56.95635345
176.42750,88.39137744
176.42800,121.6575679
176.42850,148.8198702
176.42900,149.1250646
176.42950,108.2290139
176.43000,36.81352254
176.43050,-33.07599682
176.43100,-75.19282509
176.43150,-87.40060139
176.43200,-85.26424054
176.43250,-81.60190765
176.43300,-77.02399153
176.43350,-68.17335371
176.43400,-56.88116062
176.43450,-44.36818991
176.43500,-29.71885834
176.43550,-15.06952677
176.43600,-8.050055392
176.43650,-7.439666576
176.43700,5.378498547
176.43750,47.80052122
176.43800,104.8718755
176.43850,137.2224827
176.43900,126.235484
176.43950,90.8329327
176.44000,60.61868634
176.44050,41.69663306
176.44100,26.74210709
176.44150,13.31355315
176.44200,-0.1150007913
176.44250,-22.39419255
176.44300,-52.60843892
176.44350,-72.14088101
176.44400,-67.25777049
176.44450,-50.47207806
176.44500,-39.79027379
176.44550,-27.58249748
176.44600,2.32655447
176.44650,38.33949458
176.44700,49.02129885
176.44750,28.26807912
176.44800,1.105776839
176.44850,-12.3227771
176.44900,-18.12147085
176.44950,-26.36171985
176.45000,-33.07599682
176.45050,-32.46560801
176.45100,-27.88769189
176.45150,-23.61497018
176.45200,-19.03705407
176.45250,-12.62797151
176.45300,-4.082528091
176.45350,10.56680348
176.45400,31.93041202
176.45450,50.54727089
176.45500,55.73557582
176.45550,51.76804852
176.45600,52.07324293
176.45650,58.17713108
176.45700,58.48232549
176.45750,46.27454918
176.45800,26.43691268
176.45850,3.852526509
176.45900,-18.73185966
176.45950,-35.21235768
176.46000,-38.56949616
176.46050,-30.63444156
176.46100,-19.95263729
176.46150,-8.965638615
176.46200,1.105776839
176.46250,6.599276178
176.46300,4.157720917
176.46350,-1.64097283
176.46400,-7.744860984
176.46450,-18.73185966
176.46500,-30.63444156
176.46550,-26.36171985
176.46600,-0.1150007913
176.46650,21.55380216
176.46700,5.988887363
176.46750,-38.56949616
176.46800,-71.8356866
176.46850,-69.08893693
176.46900,-45.89416195
176.46950,-27.58249748
176.47000,-18.73185966
176.47050,-11.40719388
176.47100,-2.251361645
176.47150,4.768109732
176.47200,8.735637032
176.47250,11.17719229
176.47300,13.61874756
176.47350,16.67069163
176.47400,19.11224689
176.47450,16.06030282
176.47500,4.157720917
176.47550,-16.59549881
176.47600,-42.53702346
176.47650,-62.98504878
176.47700,-65.42660404
176.47750,-44.0629955
176.47800,-8.965638615
176.47850,18.19666367
176.47900,27.96288472
176.47950,25.82652386
176.48000,20.63821893
176.48050,12.39796992
176.48100,2.32655447
176.48150,-1.030584014
176.48200,2.32655447
176.48250,0.1901936164
176.48300,-16.90069321
176.48350,-40.0954682
176.48400,-49.86168925
176.48450,-43.75780109
176.48500,-32.77080242
176.48550,-23.30977578
176.48600,-9.270833022
176.48650,13.00835874
176.48700,34.67716169
176.48750,43.83299392
176.48800,38.64468899
176.48850,29.18366235
176.48900,28.26807912
176.48950,36.81352254
176.49000,40.78104984
176.49050,28.57327353
176.49100,6.29408177
176.49150,-2.556556053
176.49200,13.00835874
176.49250,38.64468899
176.49300,51.46285411
176.49350,46.27454918
176.49400,36.20313373
176.49450,29.48885676
176.49500,16.67069163
176.49550,-13.23836032
176.49600,-54.13441095
176.49650,-79.7707412
176.49700,-66.34218726
176.49750,-18.42666525
176.49800,30.40443998
176.49850,46.88493799
176.49900,27.65769031
176.49950,2.021360063
176.50000,-6.218888945
176.50050,-3.777333684
176.50100,-7.744860984
176.50150,-15.98510999
176.50200,-10.18641625
176.50250,9.346025847
176.50300,21.55380216
176.50350,16.36549722
176.50400,11.17719229
176.50450,20.63821893
176.50500,34.37196728
176.50550,36.20313373
176.50600,30.40443998
176.50650,25.52132946
176.50700,13.00835874
176.50750,-15.37472118
176.50800,-41.62144024
176.50850,-38.26430175
176.50900,-13.54355473
176.50950,-1.64097283
176.51000,-14.45913795
176.51050,-29.71885834
176.51100,-30.63444156
176.51150,-27.88769189
176.51200,-31.24483038
176.51250,-32.1604136
176.51300,-26.05652545
176.51350,-29.41366393
176.51400,-54.43960536
176.51450,-85.26424054
176.51500,-95.94604481
176.51550,-76.71879712
176.51600,-33.07599682
176.51650,29.18366235
176.51700,96.02123763
176.51750,141.19001
176.51800,147.5990925
176.51850,125.0147064
176.51900,92.66409915
176.51950,57.87193667
176.52000,21.55380216
176.52050,-6.524083353
176.52100,-16.59549881
176.52150,-14.45913795
176.52200,-12.3227771
176.52250,-11.10199947
176.52300,-4.082528091
176.52350,5.07330414
176.52400,8.430442624
176.52450,8.125248217
176.52500,12.09277552
176.52550,16.67069163
176.52600,10.26160907
176.52650,-7.744860984
176.52700,-25.14094222
176.52750,-31.24483038
176.52800,-29.10846952
176.52850,-26.36171985
176.52900,-27.27730308
176.52950,-35.51755208
176.53000,-48.64091162
176.53050,-56.27077181
176.53100,-48.33571721
176.53150,-30.02405275
176.53200,-15.06952677
176.53250,-6.829277761
176.53300,4.462915324
176.53350,22.16419097
176.53400,33.76157846
176.53450,33.15118965
176.53500,28.87846794
176.53550,26.74210709
176.53600,16.06030282
176.53650,-10.18641625
176.53700,-36.1279409
176.53750,-35.51755208
176.53800,-10.49161065
176.53850,8.125248217
176.53900,2.631748878
176.53950,-14.76433236
176.54000,-19.95263729
176.54050,-7.744860984
176.54100,7.514859401
176.54150,12.39796992
176.54200,7.514859401
176.54250,1.105776839
176.54300,-0.420195199
176.54350,0.1901936164
176.54400,-0.1150007913
176.54450,-1.335778422
176.54500,0.1901936164
176.54550,4.768109732
176.54600,6.904470586
176.54650,5.378498547
176.54700,7.514859401
176.54750,14.53433078
176.54800,19.11224689
176.54850,19.11224689
176.54900,24.30055182
176.54950,34.06677287
176.55000,26.13171827
176.55050,-13.54355473
176.55100,-58.71232707
176.55150,-67.56296489
176.55200,-38.56949616
176.55250,-12.01758269
176.55300,-14.15394355
176.55350,-26.36171985
176.55400,-22.08899815
176.55450,-2.861750461
176.55500,10.87199789
176.55550,14.53433078
176.55600,16.97588604
176.55650,21.24860775
176.55700,21.85899656
176.55750,17.28108045
176.55800,12.39796992
176.55850,10.87199789
176.55900,9.04083144
176.55950,2.32655447
176.56000,-9.270833022
176.56050,-22.39419255
176.56100,-29.10846952
176.56150,-24.83574782
176.56200,-15.67991558
176.56250,-10.79680506
176.56300,-10.49161065
176.56350,-8.050055392
176.56400,-3.472139276
176.56450,-3.777333684
176.56500,-11.71238828
176.56550,-19.34224848
176.56600,-21.47860933
176.56650,-22.39419255
176.56700,-25.44613663
176.56750,-25.75133104
176.56800,-15.98510999
176.56850,4.462915324
176.56900,32.54080083
176.56950,61.83946397
176.57000,81.37190606
176.57050,78.01476758
176.57100,52.07324293
176.57150,20.63821893
176.57200,2.021360063
176.57250,-4.082528091
176.57300,-7.439666576
176.57350,-9.270833022
176.57400,-5.913694538
176.57450,-1.335778422
176.57500,-2.861750461
176.57550,-8.355249799
176.57600,-6.218888945
176.57650,5.07330414
176.57700,15.75510841
176.57750,16.36549722
176.57800,10.56680348
176.57850,6.29408177
176.57900,3.547332101
176.57950,-1.030584014
176.58000,-5.303305722
176.58050,-5.303305722
176.58100,-2.556556053
176.58150,-3.472139276
176.58200,-8.965638615
176.58250,-12.93316591
176.58300,-14.45913795
176.58350,-19.34224848
176.58400,-31.24483038
176.58450,-42.23182905
176.58500,-42.53702346
176.58550,-35.51755208
176.58600,-36.1279409
176.58650,-51.08246688
176.58700,-64.51102082
176.58750,-52.60843892
176.58800,-10.18641625
176.58850,35.89793932
176.58900,52.37843733
176.58950,30.40443998
176.59000,-2.556556053
176.59050,-11.71238828
176.59100,14.22913637
176.59150,52.37843733
176.59200,74.04724028
176.59250,74.6576291
176.59300,74.04724028
176.59350,89.30696067
176.59400,116.1640685
176.59450,133.8653442
176.59500,124.709512
176.59550,85.03423896
176.59600,30.70963439
176.59650,-9.57602743
176.59700,-17.51108203
176.59750,-3.472139276
176.59800,0.4953880241
176.59850,-16.59549881
176.59900,-31.55002478
176.59950,-15.06952677
176.60000,24.30055182
176.60050,48.71610444
176.60100,38.03430017
176.60150,10.26160907
176.60200,-8.660444207
176.60250,-18.42666525
176.60300,-34.60196886
176.60350,-60.23829911
176.60400,-78.54996357
176.60450,-77.93957476
176.60500,-65.12140963
176.60550,-55.66038299
176.60600,-54.43960536
176.60650,-53.82921655
176.60700,-44.0629955
176.60750,-25.75133104
176.60800,-6.524083353
176.60850,6.599276178
176.60900,10.87199789
176.60950,4.768109732
176.61000,-9.57602743
176.61050,-23.00458137
176.61100,-23.00458137
176.61150,-8.355249799
176.61200,5.07330414
176.61250,0.8005824318
176.61300,-19.64744288
176.61350,-39.48507938
176.61400,-44.67338432
176.61450,-36.43313531
176.61500,-23.30977578
176.61550,-9.57602743
176.61600,4.768109732
176.61650,19.4174413
176.61700,33.45638406
176.61750,46.27454918
176.61800,58.7875199
176.61850,65.19660246
176.61900,55.125187
176.61950,28.87846794
176.62000,5.07330414
176.62050,1.410971247
176.62100,7.209664994
176.62150,-7.744860984
176.62200,-49.25130043
176.62250,-80.68632442
176.62300,-69.08893693
176.62350,-29.71885834
176.62400,-5.913694538
176.62450,-13.23836032
176.62500,-31.85521919
176.62550,-47.11493958
176.62600,-63.59543759
176.62650,-79.7707412
176.62700,-79.46554679
176.62750,-63.59543759
176.62800,-52.30324451
176.62850,-44.36818991
176.62900,-8.965638615
176.62950,62.7550472
176.63000,125.3199008
176.63050,128.9822337
176.63100,82.8978781
176.63150,39.2550778
176.63200,26.43691268
176.63250,28.57327353
176.63300,27.04730149
176.63350,25.21613505
176.63400,29.48885676
176.63450,33.15118965
176.63500,30.09924557
176.63550,23.69016301
176.63600,20.02783012
176.63650,16.67069163
176.63700,10.87199789
176.63750,4.462915324
176.63800,-3.472139276
176.63850,-16.2903044
176.63900,-29.71885834
176.63950,-33.38119123
176.64000,-23.92016459
176.64050,-13.54355473
176.64100,-13.23836032
176.64150,-18.12147085
176.64200,-16.59549881
176.64250,-8.050055392
176.64300,-0.420195199
176.64350,5.683692955
176.64400,17.58627486
176.64450,34.06677287
176.64500,38.33949458
176.64550,17.58627486
176.64600,-17.51108203
176.64650,-42.23182905
176.64700,-41.92663465
176.64750,-25.14094222
176.64800,-8.660444207
176.64850,-2.556556053
176.64900,-4.082528091
176.64950,-6.524083353
176.65000,-4.998111315
176.65050,0.4953880241
176.65100,7.514859401
176.65150,13.00835874
176.65200,16.67069163
176.65250,18.19666367
176.65300,15.75510841
176.65350,14.53433078
176.65400,23.99535742
176.65450,41.08624425
176.65500,41.08624425
176.65550,2.631748878
176.65600,-55.9655774
176.65650,-88.01099021
176.65700,-72.44607542
176.65750,-41.31624583
176.65800,-36.1279409
176.65850,-51.9980501
176.65900,-52.60843892
176.65950,-32.77080242
176.66000,-23.30977578
176.66050,-39.48507938
176.66100,-53.21882773
176.66150,-40.40066261
176.66200,-16.59549881
176.66250,-4.082528091
176.66300,10.26160907
176.66350,45.66416036
176.66400,79.23554521
176.66450,71.91087943
176.66500,33.15118965
176.66550,12.39796992
176.66600,25.52132946
176.66650,39.2550778
176.66700,31.93041202
176.66750,25.21613505
176.66800,37.11871695
176.66850,45.35896596
176.66900,26.13171827
176.66950,-4.387722499
176.67000,-17.20588762
176.67050,-12.01758269
176.67100,-4.998111315
176.67150,7.209664994
176.67200,33.45638406
176.67250,58.17713108
176.67300,58.7875199
176.67350,40.47585543
176.67400,26.43691268
176.67450,20.63821893
176.67500,10.56680348
176.67550,-4.387722499
176.67600,-10.79680506
176.67650,-4.082528091
176.67700,4.462915324
176.67750,6.599276178
176.67800,3.547332101
176.67850,-2.251361645
176.67900,-10.79680506
176.67950,-15.98510999
176.68000,-12.93316591
176.68050,-4.998111315
176.68100,2.021360063
176.68150,10.87199789
176.68200,21.55380216
176.68250,25.21613505
176.68300,13.00835874
176.68350,-8.050055392
176.68400,-20.2578317
176.68450,-16.2903044
176.68500,-5.913694538
176.68550,-4.082528091
176.68600,-13.54355473
176.68650,-25.44613663
176.68700,-29.41366393
176.68750,-25.44613663
176.68800,-20.56302611
176.68850,-18.42666525
176.68900,-17.20588762
176.68950,-16.59549881
176.69000,-20.2578317
176.69050,-24.225359
176.69100,-17.51108203
176.69150,-2.556556053
176.69200,3.242137693
176.69250,-5.303305722
176.69300,-8.965638615
176.69350,9.04083144
176.69400,32.54080083
176.69450,35.89793932
176.69500,20.33302452
176.69550,6.29408177
176.69600,0.8005824318
176.69650,-2.556556053
176.69700,-3.166944868
176.69750,2.936943286
176.69800,6.904470586
176.69850,-3.166944868
176.69900,-17.20588762
176.69950,-15.98510999
176.70000,-6.829277761
176.70050,-13.23836032
176.70100,-33.99158005
176.70150,-42.53702346
176.70200,-31.24483038
176.70250,-24.53055341
176.70300,-37.65391294
176.70350,-55.66038299
176.70400,-56.57596622
176.70450,-43.14741228
176.70500,-29.10846952
176.70550,-14.15394355
176.70600,8.430442624
176.70650,36.50832813
176.70700,56.04077023
176.70750,59.70310312
176.70800,53.90440937
176.70850,49.02129885
176.70900,49.02129885
176.70950,46.57974359
176.71000,34.98235609
176.71050,19.4174413
176.71100,13.00835874
176.71150,13.61874756
176.71200,4.462915324
176.71250,-23.92016459
176.71300,-55.04999418
176.71350,-64.81621522
176.71400,-50.77727247
176.71450,-31.85521919
176.71500,-23.00458137
176.71550,-19.03705407
176.71600,-2.251361645
176.71650,37.42391136
176.71700,87.78098863
176.71750,116.7744574
176.71800,103.9562922
176.71850,63.97582483
176.71900,31.93041202
176.71950,20.33302452
176.72000,10.26160907
176.72050,-9.881221838
176.72100,-26.66691426
176.72150,-24.83574782
176.72200,-12.93316591
176.72250,-4.692916907
176.72300,-0.1150007913
176.72350,6.29408177
176.72400,6.904470586
176.72450,-2.556556053
176.72500,-10.49161065
176.72550,-7.134472168
176.72600,-5.913694538
176.72650,-21.47860933
176.72700,-42.53702346
176.72750,-46.80974517
176.72800,-33.07599682
176.72850,-20.2578317
176.72900,-18.42666525
176.72950,-20.56302611
176.73000,-21.47860933
176.73050,-22.39419255
176.73100,-22.39419255
176.73150,-15.37472118
176.73200,-3.166944868
176.73250,5.378498547
176.73300,6.599276178
176.73350,2.32655447
176.73400,-3.166944868
176.73450,-8.355249799
176.73500,-10.49161065
176.73550,-10.49161065
176.73600,-12.62797151
176.73650,-15.67991558
176.73700,-14.45913795
176.73750,-8.660444207
176.73800,-3.777333684
176.73850,-0.420195199
176.73900,7.209664994
176.73950,15.449914
176.74000,10.87199789
176.74050,-5.913694538
176.74100,-20.2578317
176.74150,-28.1928863
176.74200,-45.58896754
176.74250,-73.97204746
176.74300,-83.43307409
176.74350,-52.30324451
176.74400,-6.218888945
176.74450,12.09277552
176.74500,2.021360063
176.74550,-1.335778422
176.74600,21.85899656
176.74650,55.125187
176.74700,78.6251564
176.74750,92.96929356
176.74800,101.514737
176.74850,96.32643204
176.74900,77.40437876
176.74950,61.22907516
176.75000,57.56674226
176.75050,49.32649326
176.75100,17.58627486
176.75150,-25.14094222
176.75200,-46.80974517
176.75250,-37.95910735
176.75300,-21.17341492
176.75350,-17.81627644
176.75400,-22.39419255
176.75450,-20.2578317
176.75500,-10.79680506
176.75550,-5.60850013
176.75600,-8.660444207
176.75650,-11.40719388
176.75700,-8.965638615
176.75750,-4.082528091
176.75800,-0.1150007913
176.75850,2.631748878
176.75900,5.378498547
176.75950,6.29408177
176.76000,6.599276178
176.76050,8.735637032
176.76100,10.26160907
176.76150,6.29408177
176.76200,-3.166944868
176.76250,-9.881221838
176.76300,-7.744860984
176.76350,-0.420195199
176.76400,4.462915324
176.76450,5.378498547
176.76500,5.683692955
176.76550,5.988887363
176.76600,3.242137693
176.76650,-3.472139276
176.76700,-9.881221838
176.76750,-11.10199947
176.76800,-11.10199947
176.76850,-15.98510999
176.76900,-24.83574782
176.76950,-28.80327512
176.77000,-24.83574782
176.77050,-20.56302611
176.77100,-22.69938696
176.77150,-25.75133104
176.77200,-18.42666525
176.77250,-2.861750461
176.77300,8.735637032
176.77350,12.09277552
176.77400,14.83952519
176.77450,22.16419097
176.77500,28.26807912
176.77550,23.3849686
176.77600,9.346025847
176.77650,-3.166944868
176.77700,-5.60850013
176.77750,2.32655447
176.77800,13.92394196
176.77850,19.4174413
176.77900,15.75510841
176.77950,7.820053809
176.78000,5.07330414
176.78050,13.92394196
176.78100,35.2875505
176.78150,63.0602416
176.78200,81.98229488
176.78250,75.26801791
176.78300,39.86546662
176.78350,-7.744860984
176.78400,-45.58896754
176.78450,-60.54349352
176.78500,-54.13441095
176.78550,-42.84221787
176.78600,-46.19935635
176.78650,-68.47854812
176.78700,-87.40060139
176.78750,-77.32918594
176.78800,-44.97857872
176.78850,-21.78380374
176.78900,-19.34224848
176.78950,-15.98510999
176.79000,5.07330414
176.79050,25.82652386
176.79100,22.16419097
176.79150,2.936943286
176.79200,-8.660444207
176.79250,-13.23836032
176.79300,-23.61497018
176.79350,-33.07599682
176.79400,-21.78380374
176.79450,5.378498547
176.79500,17.89146926
176.79550,4.462915324
176.79600,-9.57602743
176.79650,-2.251361645
176.79700,15.75510841
176.79750,21.24860775
176.79800,13.31355315
176.79850,10.26160907
176.79900,21.85899656
176.79950,38.03430017
176.80000,44.13818833
176.80050,36.20313373
176.80100,21.55380216
176.80150,10.56680348
176.80200,7.514859401
176.80250,7.514859401
176.80300,2.021360063
176.80350,-8.660444207
176.80400,-16.90069321
176.80450,-18.73185966
176.80500,-17.81627644
176.80550,-14.45913795
176.80600,-2.861750461
176.80650,16.06030282
176.80700,29.18366235
176.80750,25.52132946
176.80800,10.87199789
176.80850,-1.030584014
176.80900,-5.60850013
176.80950,-8.050055392
176.81000,-10.49161065
176.81050,-11.71238828
176.81100,-12.01758269
176.81150,-12.01758269
176.81200,-9.270833022
176.81250,-2.861750461
176.81300,1.716165655
176.81350,4.768109732
176.81400,19.11224689
176.81450,55.73557582
176.81500,100.5991538
176.81550,120.1315958
176.81600,96.63162645
176.81650,46.88493799
176.81700,3.547332101
176.81750,-17.81627644
176.81800,-23.30977578
176.81850,-23.61497018
176.81900,-20.56302611
176.81950,-12.62797151
176.82000,-2.251361645
176.82050,3.852526509
176.82100,4.768109732
176.82150,5.07330414
176.82200,7.514859401
176.82250,7.514859401
176.82300,1.105776839
176.82350,-6.218888945
176.82400,-10.18641625
176.82450,-13.84874914
176.82500,-21.78380374
176.82550,-27.27730308
176.82600,-21.78380374
176.82650,-13.23836032
176.82700,-18.12147085
176.82750,-39.17988498
176.82800,-60.54349352
176.82850,-70.30971456
176.82900,-66.64738167
176.82950,-48.0305228
176.83000,-19.03705407
176.83050,-2.861750461
176.83100,-22.69938696
176.83150,-61.45907674
176.83200,-69.69932575
176.83250,-26.05652545
176.83300,30.40443998
176.83350,50.54727089
176.83400,35.59274491
176.83450,24.91094064
176.83500,41.08624425
176.83550,68.55374094
176.83600,83.81346133
176.83650,80.76151725
176.83700,63.0602416
176.83750,32.84599524
176.83800,-3.166944868
176.83850,-30.63444156
176.83900,-37.65391294
176.83950,-28.80327512
176.84000,-21.78380374
176.84050,-25.75133104
176.84100,-29.41366393
176.84150,-14.15394355
176.84200,23.69016301
176.84250,66.11218568
176.84300,90.5277383
176.84350,92.35890474
176.84400,81.06671166
176.84450,64.28101923
176.84500,42.61221629
176.84550,18.19666367
176.84600,-2.556556053
176.84650,-16.2903044
176.84700,-23.61497018
176.84750,-26.05652545
176.84800,-27.27730308
176.84850,-32.1604136
176.84900,-44.0629955
176.84950,-57.79674385
176.85000,-64.51102082
176.85050,-61.76427115
176.85100,-53.82921655
176.85150,-45.89416195
176.85200,-38.56949616
176.85250,-30.63444156
176.85300,-19.64744288
176.85350,-7.439666576
176.85400,0.1901936164
176.85450,3.852526509
176.85500,15.14471959
176.85550,45.35896596
176.85600,81.98229488
176.85650,93.57968237
176.85700,67.0277689
176.85750,25.82652386
176.85800,1.410971247
176.85850,-4.082528091
176.85900,-10.79680506
176.85950,-24.53055341
176.86000,-33.38119123
176.86050,-32.1604136
176.86100,-31.85521919
176.86150,-38.87469057
176.86200,-41.62144024
176.86250,-30.32924715
176.86300,-14.76433236
176.86350,-10.79680506
176.86400,-18.12147085
176.86450,-20.86822052
176.86500,-12.62797151
176.86550,-0.1150007913
176.86600,8.735637032
176.86650,15.14471959
176.86700,20.33302452
176.86750,20.63821893
176.86800,12.70316433
176.86850,0.4953880241
176.86900,-10.49161065
176.86950,-19.95263729
176.87000,-30.32924715
176.87050,-38.56949616
176.87100,-38.26430175
176.87150,-30.63444156
176.87200,-25.14094222
176.87250,-26.97210867
176.87300,-29.10846952
176.87350,-23.30977578
176.87400,-12.62797151
176.87450,-6.218888945
176.87500,-8.050055392
176.87550,-12.01758269
176.87600,-11.40719388
176.87650,-6.218888945
176.87700,-1.335778422
176.87750,1.105776839
176.87800,2.32655447
176.87850,2.32655447
176.87900,2.32655447
176.87950,2.936943286
176.88000,2.936943286
176.88050,1.410971247
176.88100,-0.7253896067
176.88150,-1.64097283
176.88200,-0.1150007913
176.88250,2.32655447
176.88300,4.768109732
176.88350,5.683692955
176.88400,5.988887363
176.88450,7.514859401
176.88500,10.56680348
176.88550,12.09277552
176.88600,9.346025847
176.88650,2.936943286
176.88700,-4.998111315
176.88750,-13.54355473
176.88800,-18.73185966
176.88850,-12.62797151
176.88900,6.29408177
176.88950,25.21613505
176.89000,31.93041202
176.89050,34.98235609
176.89100,53.59921496
176.89150,80.45632284
176.89200,84.11865573
176.89250,52.07324293
176.89300,18.19666367
176.89350,21.24860775
176.89400,53.29402056
176.89450,70.38490739
176.89500,43.2226051
176.89550,-17.81627644
176.89600,-83.12787969
176.89650,-127.6862632
176.89700,-145.0823444
176.89750,-147.5238997
176.89800,-154.2381767
176.89850,-164.3095921
176.89900,-147.5238997
176.89950,-84.04346291
176.90000,-2.251361645
176.90050,41.39143866
176.90100,28.26807912
176.90150,-7.439666576
176.90200,-25.14094222
176.90250,-21.17341492
176.90300,-12.62797151
176.90350,-3.166944868
176.90400,13.31355315
176.90450,29.48885676
176.90500,31.01482879
176.90550,25.21613505
176.90600,37.42391136
176.90650,74.35243469
176.90700,110.0601804
176.90750,117.0796518
176.90800,96.63162645
176.90850,70.9952962
176.90900,54.51479819
176.90950,46.88493799
176.91000,44.74857714
176.91050,48.41091003
176.91100,56.04077023
176.91150,60.92388075
176.91200,58.17713108
176.91250,46.88493799
176.91300,27.3524959
176.91350,2.32655447
176.91400,-19.64744288
176.91450,-28.1928863
176.91500,-22.39419255
176.91550,-13.84874914
176.91600,-10.79680506
176.91650,-8.355249799
176.91700,2.32655447
176.91750,20.02783012
176.91800,30.40443998
176.91850,24.60574623
176.91900,9.04083144
176.91950,-2.861750461
176.92000,-4.998111315
176.92050,-2.251361645
176.92100,-1.030584014
176.92150,-1.946167238
176.92200,-1.946167238
176.92250,-0.1150007913
176.92300,0.8005824318
176.92350,0.1901936164
176.92400,-1.030584014
176.92450,-1.64097283
176.92500,-1.335778422
176.92550,-0.1150007913
176.92600,0.8005824318
176.92650,0.8005824318
176.92700,0.1901936164
176.92750,0.4953880241
176.92800,1.105776839
176.92850,-0.1150007913
176.92900,-2.861750461
176.92950,-5.303305722
176.93000,-5.60850013
176.93050,-5.60850013
176.93100,-6.524083353
176.93150,-8.050055392
176.93200,-10.49161065
176.93250,-12.3227771
176.93300,-12.3227771
176.93350,-10.49161065
176.93400,-9.270833022
176.93450,-9.270833022
176.93500,-4.998111315
176.93550,5.683692955
176.93600,13.61874756
176.93650,9.04083144
176.93700,-2.556556053
176.93750,-7.134472168
176.93800,-0.420195199
176.93850,5.683692955
176.93900,0.4953880241
176.93950,-15.37472118
176.94000,-36.73832972
176.94050,-56.57596622
176.94100,-65.12140963
176.94150,-55.9655774
176.94200,-38.87469057
176.94250,-29.10846952
176.94300,-21.47860933
176.94350,6.599276178
176.94400,57.87193667
176.94450,98.15759849
176.94500,92.96929356
176.94550,50.54727089
176.94600,10.87199789
176.94650,-1.335778422
176.94700,1.410971247
176.94750,-0.420195199
176.94800,-8.050055392
176.94850,-7.134472168
176.94900,5.07330414
176.94950,11.78758111
176.95000,-0.420195199
176.95050,-21.78380374
176.95100,-28.1928863
176.95150,-13.84874914
176.95200,-0.1150007913
176.95250,-7.744860984
176.95300,-32.1604136
176.95350,-47.11493958
176.95400,-34.90716327
176.95450,-2.251361645
176.95500,31.93041202
176.95550,54.20960378
176.95600,60.00829753
176.95650,51.76804852
176.95700,35.59274491
176.95750,20.02783012
176.95800,10.87199789
176.95850,7.820053809
176.95900,7.209664994
176.95950,6.904470586
176.96000,5.378498547
176.96050,2.32655447
176.96100,-1.335778422
176.96150,-1.64097283
176.96200,4.462915324
176.96250,14.83952519
176.96300,19.72263571
176.96350,16.36549722
176.96400,11.4823867
176.96450,6.29408177
176.96500,-9.881221838
176.96550,-44.36818991
176.96600,-79.16035239
176.96650,-90.14735106
176.96700,-77.32918594
176.96750,-62.06946555
176.96800,-53.52402214
176.96850,-43.14741228
176.96900,-32.1604136
176.96950,-37.65391294
176.97000,-55.04999418
176.97050,-46.80974517
176.97100,7.514859401
176.97150,76.18360113
176.97200,106.0926531
176.97250,86.560211
176.97300,49.02129885
176.97350,17.89146926
176.97400,-6.829277761
176.97450,-26.36171985
176.97500,-32.1604136
176.97550,-22.39419255
176.97600,-10.79680506
176.97650,-6.829277761
176.97700,-6.218888945
176.97750,-6.218888945
176.97800,-13.54355473
176.97850,-30.02405275
176.97900,-43.14741228
176.97950,-40.0954682
176.98000,-26.05652545
176.98050,-16.90069321
176.98100,-18.73185966
176.98150,-23.92016459
176.98200,-24.225359
176.98250,-20.86822052
176.98300,-17.20588762
176.98350,-10.79680506
176.98400,1.716165655
176.98450,18.19666367
176.98500,30.40443998
176.98550,35.59274491
176.98600,37.72910576
176.98650,38.33949458
176.98700,34.37196728
176.98750,25.21613505
176.98800,16.67069163
176.98850,12.39796992
176.98900,10.26160907
176.98950,8.735637032
176.99000,11.17719229
176.99050,16.67069163
176.99100,16.36549722
176.99150,4.768109732
176.99200,-10.18641625
176.99250,-18.12147085
176.99300,-13.84874914
176.99350,1.105776839
176.99400,23.07977419
176.99450,43.52779951
176.99500,51.76804852
176.99550,46.27454918
176.99600,31.93041202
176.99650,12.70316433
176.99700,-10.79680506
176.99750,-30.93963597
176.99800,-37.34871853
176.99850,-38.87469057
176.99900,-58.40713266
176.99950,-97.16682244
177.00000,-120.9719862
177.00050,-102.9655162
177.00100,-61.15388233
177.00150,-32.1604136
177.00200,-18.42666525
177.00250,7.514859401
177.00300,54.20960378
177.00350,89.30696067
177.00400,87.17059981
177.00450,63.97582483
177.00500,49.63168766
177.00550,43.83299392
177.00600,22.16419097
177.00650,-19.03705407
177.00700,-50.47207806
177.00750,-48.64091162
177.00800,-26.66691426
177.00850,-12.62797151
177.00900,-14.15394355
177.00950,-16.2903044
177.01000,-8.965638615
177.01050,2.32655447
177.01100,9.04083144
177.01150,9.956414663
177.01200,5.683692955
177.01250,1.410971247
177.01300,7.514859401
177.01350,29.79405116
177.01400,52.98882615
177.01450,56.04077023
177.01500,39.2550778
177.01550,24.30055182
177.01600,23.07977419
177.01650,24.91094064
177.01700,18.50185808
177.01750,12.09277552
177.01800,14.83952519
177.01850,17.89146926
177.01900,7.820053809
177.01950,-10.49161065
177.02000,-21.78380374
177.02050,-20.86822052
177.02100,-15.37472118
177.02150,-12.01758269
177.02200,-8.355249799
177.02250,-1.946167238
177.02300,3.242137693
177.02350,4.157720917
177.02400,1.410971247
177.02450,-0.420195199
177.02500,-0.420195199
177.02550,-0.1150007913
177.02600,-1.335778422
177.02650,-1.946167238
177.02700,1.716165655
177.02750,12.09277552
177.02800,22.16419097
177.02850,25.82652386
177.02900,23.69016301
177.02950,20.63821893
177.03000,17.58627486
177.03050,8.735637032
177.03100,-7.744860984
177.03150,-24.225359
177.03200,-28.49808071
177.03250,-20.86822052
177.03300,-15.06952677
177.03350,-24.225359
177.03400,-42.23182905
177.03450,-51.69285569
177.03500,-45.89416195
177.03550,-36.43313531
177.03600,-33.07599682
177.03650,-30.63444156
177.03700,-23.00458137
177.03750,-14.76433236
177.03800,-7.744860984
177.03850,8.430442624
177.03900,40.78104984
177.03950,68.85893535
177.04000,64.58621364
177.04050,30.09924557
177.04100,-5.60850013
177.04150,-24.225359
177.04200,-31.24483038
177.04250,-34.60196886
177.04300,-34.60196886
177.04350,-33.07599682
177.04400,-35.21235768
177.04450,-33.68638564
177.04500,-13.23836032
177.04550,25.21613505
177.04600,59.39790871
177.04650,71.30049061
177.04700,64.89140805
177.04750,53.29402056
177.04800,40.17066103
177.04850,24.91094064
177.04900,9.04083144
177.04950,-4.998111315
177.05000,-17.81627644
177.05050,-31.85521919
177.05100,-46.50455076
177.05150,-56.27077181
177.05200,-51.69285569
177.05250,-27.88769189
177.05300,0.1901936164
177.05350,11.4823867
177.05400,3.852526509
177.05450,-1.946167238
177.05500,5.378498547
177.05550,13.61874756
177.05600,11.17719229
177.05650,11.4823867
177.05700,31.93041202
177.05750,61.53426956
177.05800,75.57321232
177.05850,66.7225745
177.05900,48.71610444
177.05950,30.70963439
177.06000,15.14471959
177.06050,6.599276178
177.06100,4.462915324
177.06150,-5.303305722
177.06200,-34.29677445
177.06250,-64.51102082
177.06300,-67.56296489
177.06350,-43.45260668
177.06400,-20.2578317
177.06450,-16.2903044
177.06500,-18.12147085
177.06550,-4.387722499
177.06600,28.26807912
177.06650,67.33296331
177.06700,96.32643204
177.06750,101.2095426
177.06800,77.70957317
177.06850,37.72910576
177.06900,2.32655447
177.06950,-18.42666525
177.07000,-33.07599682
177.07050,-50.47207806
177.07100,-67.8681593
177.07150,-73.97204746
177.07200,-64.51102082
177.07250,-44.97857872
177.07300,-25.44613663
177.07350,-11.40719388
177.07400,-1.946167238
177.07450,6.599276178
177.07500,15.14471959
177.07550,16.67069163
177.07600,5.378498547
177.07650,-12.01758269
177.07700,-23.30977578
177.07750,-21.47860933
177.07800,-12.3227771
177.07850,-5.913694538
177.07900,-4.082528091
177.07950,-4.082528091
177.08000,-4.082528091
177.08050,-4.998111315
177.08100,-6.524083353
177.08150,-7.744860984
177.08200,-8.050055392
177.08250,-8.355249799
177.08300,-8.965638615
177.08350,-9.270833022
177.08400,-11.40719388
177.08450,-17.51108203
177.08500,-25.14094222
177.08550,-27.27730308
177.08600,-19.34224848
177.08650,-7.134472168
177.08700,-0.1150007913
177.08750,-1.64097283
177.08800,-1.946167238
177.08850,9.346025847
177.08900,30.09924557
177.08950,45.96935477
177.09000,50.24207648
177.09050,52.37843733
177.09100,59.39790871
177.09150,62.7550472
177.09200,47.49532681
177.09250,16.97588604
177.09300,-7.744860984
177.09350,-12.62797151
177.09400,-1.030584014
177.09450,13.92394196
177.09500,23.07977419
177.09550,20.63821893
177.09600,4.157720917
177.09650,-17.51108203
177.09700,-31.24483038
177.09750,-31.85521919
177.09800,-29.10846952
177.09850,-31.24483038
177.09900,-33.07599682
177.09950,-24.83574782
177.10000,-6.218888945
177.10050,8.735637032
177.10100,7.514859401
177.10150,-8.050055392
177.10200,-23.92016459
177.10250,-29.71885834
177.10300,-30.93963597
177.10350,-37.34871853
177.10400,-41.01105142
177.10450,-25.75133104
177.10500,6.599276178
177.10550,32.84599524
177.10600,38.33949458
177.10650,36.20313373
177.10700,43.2226051
177.10750,51.76804852
177.10800,43.52779951
177.10850,18.50185808
177.10900,-4.692916907
177.10950,-15.98510999
177.11000,-18.12147085
177.11050,-17.51108203
177.11100,-18.73185966
177.11150,-23.92016459
177.11200,-27.88769189
177.11250,-21.17341492
177.11300,-5.60850013
177.11350,3.852526509
177.11400,4.157720917
177.11450,11.17719229
177.11500,33.15118965
177.11550,48.10571563
177.11600,34.06677287
177.11650,2.631748878
177.11700,-15.98510999
177.11750,-16.59549881
177.11800,-16.90069321
177.11850,-22.39419255
177.11900,-22.08899815
177.11950,-17.51108203
177.12000,-24.53055341
177.12050,-40.0954682
177.12100,-36.73832972
177.12150,-1.946167238
177.12200,37.42391136
177.12250,51.76804852
177.12300,45.66416036
177.12350,45.96935477
177.12400,58.17713108
177.12450,61.53426956
177.12500,45.35896596
177.12550,24.30055182
177.12600,13.00835874
177.12650,1.716165655
177.12700,-24.83574782
177.12750,-55.04999418
177.12800,-62.98504878
177.12850,-44.67338432
177.12900,-25.44613663
177.12950,-23.61497018
177.13000,-33.68638564
177.13050,-42.23182905
177.13100,-44.0629955
177.13150,-37.95910735
177.13200,-22.08899815
177.13250,-9.57602743
177.13300,-18.42666525
177.13350,-41.01105142
177.13400,-43.14741228
177.13450,-10.49161065
177.13500,27.04730149
177.13550,34.98235609
177.13600,15.75510841
177.13650,-3.166944868
177.13700,-9.881221838
177.13750,-4.387722499
177.13800,23.69016301
177.13850,78.6251564
177.13900,128.3718449
177.13950,128.3718449
177.14000,75.26801791
177.14050,15.14471959
177.14100,-12.62797151
177.14150,-12.93316591
177.14200,-11.40719388
177.14250,-16.59549881
177.14300,-22.08899815
177.14350,-24.53055341
177.14400,-27.58249748
177.14450,-30.02405275
177.14500,-27.58249748
177.14550,-22.39419255
177.14600,-21.78380374
177.14650,-25.44613663
177.14700,-25.75133104
177.14750,-19.34224848
177.14800,-9.881221838
177.14850,-0.7253896067
177.14900,9.956414663
177.14950,22.46938538
177.15000,27.96288472
177.15050,20.63821893
177.15100,8.125248217
177.15150,3.547332101
177.15200,6.904470586
177.15250,7.514859401
177.15300,-0.7253896067
177.15350,-11.40719388
177.15400,-15.67991558
177.15450,-12.93316591
177.15500,-8.355249799
177.15550,-5.303305722
177.15600,-6.829277761
177.15650,-12.62797151
177.15700,-14.76433236
177.15750,-3.472139276
177.15800,17.58627486
177.15850,32.54080083
177.15900,30.09924557
177.15950,14.53433078
177.16000,-0.1150007913
177.16050,-2.861750461
177.16100,7.514859401
177.16150,26.74210709
177.16200,45.05377155
177.16250,56.34596463
177.16300,60.31349193
177.16350,56.65115904
177.16400,40.17066103
177.16450,15.449914
177.16500,1.716165655
177.16550,9.956414663
177.16600,16.06030282
177.16650,-12.93316591
177.16700,-73.05646423
177.16750,-118.2252366
177.16800,-115.4784869
177.16850,-79.7707412
177.16900,-44.67338432
177.16950,-23.30977578
177.17000,-10.49161065
177.17050,-5.60850013
177.17100,-10.79680506
177.17150,-17.20588762
177.17200,-14.15394355
177.17250,-7.439666576
177.17300,-8.355249799
177.17350,-13.23836032
177.17400,-9.57602743
177.17450,0.8005824318
177.17500,5.378498547
177.17550,1.105776839
177.17600,-1.64097283
177.17650,0.8005824318
177.17700,2.631748878
177.17750,1.410971247
177.17800,5.378498547
177.17850,17.58627486
177.17900,28.26807912
177.17950,28.57327353
177.18000,19.11224689
177.18050,4.462915324
177.18100,-12.93316591
177.18150,-28.80327512
177.18200,-39.79027379
177.18250,-53.21882773
177.18300,-76.41360272
177.18350,-97.77721126
177.18400,-95.6408504
177.18450,-64.81621522
177.18500,-26.36171985
177.18550,-0.7253896067
177.18600,8.430442624
177.18650,7.209664994
177.18700,2.021360063
177.18750,5.988887363
177.18800,33.45638406
177.18850,75.57321232
177.18900,101.514737
177.18950,92.05371033
177.19000,60.31349193
177.19050,29.79405116
177.19100,10.56680348
177.19150,2.32655447
177.19200,5.683692955
177.19250,18.19666367
177.19300,28.26807912
177.19350,32.84599524
177.19400,43.83299392
177.19450,66.7225745
177.19500,85.03423896
177.19550,78.31996199
177.19600,48.71610444
177.19650,13.00835874
177.19700,-15.37472118
177.19750,-30.93963597
177.19800,-31.24483038
177.19850,-22.69938696
177.19900,-19.95263729
177.19950,-27.88769189
177.20000,-33.38119123
177.20050,-24.225359
177.20100,-7.744860984
177.20150,1.105776839
177.20200,1.105776839
177.20250,3.242137693
177.20300,16.06030282
177.20350,37.42391136
177.20400,56.95635345
177.20450,61.83946397
177.20500,44.13818833
177.20550,9.346025847
177.20600,-23.92016459
177.20650,-40.40066261
177.20700,-37.65391294
177.20750,-26.97210867
177.20800,-20.2578317
177.20850,-21.47860933
177.20900,-24.225359
177.20950,-20.56302611
177.21000,-11.10199947
177.21050,-3.166944868
177.21100,1.105776839
177.21150,8.125248217
177.21200,15.449914
177.21250,12.70316433
177.21300,0.4953880241
177.21350,-4.387722499
177.21400,7.209664994
177.21450,24.60574623
177.21500,34.06677287
177.21550,34.37196728
177.21600,28.57327353
177.21650,13.92394196
177.21700,-7.439666576
177.21750,-28.1928863
177.21800,-48.94610602
177.21850,-79.16035239
177.21900,-110.5953764
177.21950,-118.2252366
177.22000,-98.38760007
177.22050,-78.24476916
177.22100,-70.61490897
177.22150,-51.9980501
177.22200,-7.439666576
177.22250,34.37196728
177.22300,44.13818833
177.22350,37.72910576
177.22400,43.52779951
177.22450,54.81999259
177.22500,45.96935477
177.22550,23.3849686
177.22600,15.75510841
177.22650,25.21613505
177.22700,27.65769031
177.22750,13.92394196
177.22800,-3.777333684
177.22850,-19.34224848
177.22900,-33.99158005
177.22950,-37.34871853
177.23000,-18.73185966
177.23050,7.820053809
177.23100,16.67069163
177.23150,3.242137693
177.23200,-12.62797151
177.23250,-17.51108203
177.23300,-5.913694538
177.23350,27.04730149
177.23400,75.57321232
177.23450,108.5342084
177.23500,97.54720967
177.23550,56.04077023
177.23600,24.91094064
177.23650,17.58627486
177.23700,13.31355315
177.23750,-4.082528091
177.23800,-24.225359
177.23850,-33.38119123
177.23900,-35.21235768
177.23950,-36.43313531
177.24000,-36.1279409
177.24050,-32.77080242
177.24100,-30.93963597
177.24150,-30.63444156
177.24200,-18.73185966
177.24250,15.14471959
177.24300,58.7875199
177.24350,84.42385014
177.24400,75.87840673
177.24450,45.05377155
177.24500,17.58627486
177.24550,7.514859401
177.24600,8.430442624
177.24650,9.651220255
177.24700,9.04083144
177.24750,9.346025847
177.24800,9.956414663
177.24850,8.735637032
177.24900,8.125248217
177.24950,9.651220255
177.25000,10.56680348
177.25050,7.209664994
177.25100,1.716165655
177.25150,-8.050055392
177.25200,-30.63444156
177.25250,-62.06946555
177.25300,-81.60190765
177.25350,-78.54996357
177.25400,-67.25777049
177.25450,-64.81621522
177.25500,-63.59543759
177.25550,-49.25130043
177.25600,-30.63444156
177.25650,-25.14094222
177.25700,-25.14094222
177.25750,-10.49161065
177.25800,14.53433078
177.25850,27.3524959
177.25900,27.96288472
177.25950,40.78104984
177.26000,69.16412976
177.26050,83.81346133
177.26100,65.50179686
177.26150,33.15118965
177.26200,14.53433078
177.26250,10.26160907
177.26300,6.904470586
177.26350,2.32655447
177.26400,3.547332101
177.26450,10.56680348
177.26500,19.72263571
177.26550,31.62521761
177.26600,42.61221629
177.26650,42.00182747
177.26700,24.60574623
177.26750,2.021360063
177.26800,-13.23836032
177.26850,-20.2578317
177.26900,-23.00458137
177.26950,-22.69938696
177.27000,-26.66691426
177.27050,-43.75780109
177.27100,-67.56296489
177.27150,-73.97204746
177.27200,-51.38766129
177.27250,-18.42666525
177.27300,0.4953880241
177.27350,5.988887363
177.27400,9.04083144
177.27450,5.988887363
177.27500,-13.54355473
177.27550,-42.23182905
177.27600,-56.27077181
177.27650,-45.89416195
177.27700,-24.53055341
177.27750,-8.660444207
177.27800,-1.946167238
177.27850,-1.030584014
177.27900,-4.998111315
177.27950,-14.15394355
177.28000,-24.83574782
177.28050,-32.77080242
177.28100,-39.17988498
177.28150,-49.25130043
177.28200,-64.81621522
177.28250,-73.97204746
177.28300,-55.9655774
177.28350,-5.303305722
177.28400,49.02129885
177.28450,71.30049061
177.28500,59.70310312
177.28550,49.02129885
177.28600,62.14465838
177.28650,81.06671166
177.28700,76.48879554
177.28750,49.63168766
177.28800,26.43691268
177.28850,19.72263571
177.28900,20.63821893
177.28950,20.02783012
177.29000,18.50185808
177.29050,16.67069163
177.29100,10.87199789
177.29150,2.631748878
177.29200,-1.030584014
177.29250,-0.1150007913
177.29300,-1.64097283
177.29350,-8.050055392
177.29400,-14.76433236
177.29450,-18.42666525
177.29500,-21.47860933
177.29550,-25.44613663
177.29600,-27.88769189
177.29650,-26.66691426
177.29700,-20.56302611
177.29750,-9.270833022
177.29800,5.378498547
177.29850,20.63821893
177.29900,33.15118965
177.29950,45.05377155
177.30000,55.73557582
177.30050,61.53426956
177.30100,60.92388075
177.30150,58.17713108
177.30200,52.68363174
177.30250,35.2875505
177.30300,1.716165655
177.30350,-33.38119123
177.30400,-49.55649484
177.30450,-41.62144024
177.30500,-22.39419255
177.30550,-4.387722499
177.30600,7.209664994
177.30650,13.00835874
177.30700,12.70316433
177.30750,11.17719229
177.30800,9.651220255
177.30850,1.105776839
177.30900,-19.34224848
177.30950,-40.70585702
177.31000,-44.67338432
177.31050,-34.60196886
177.31100,-30.63444156
177.31150,-38.26430175
177.31200,-40.70585702
177.31250,-28.49808071
177.31300,-17.51108203
177.31350,-22.08899815
177.31400,-26.36171985
177.31450,-8.355249799
177.31500,23.07977419
177.31550,34.98235609
177.31600,14.83952519
177.31650,-13.54355473
177.31700,-23.00458137
177.31750,-13.23836032
177.31800,-6.829277761
177.31850,-22.39419255
177.31900,-56.57596622
177.31950,-87.7057958
177.32000,-90.14735106
177.32050,-57.18635503
177.32100,-10.79680506
177.32150,16.36549722
177.32200,16.97588604
177.32250,13.61874756
177.32300,31.62521761
177.32350,69.46932416
177.32400,102.7355146
177.32450,110.9757636
177.32500,95.41084882
177.32550,69.46932416
177.32600,45.66416036
177.32650,26.74210709
177.32700,13.00835874
177.32750,2.936943286
177.32800,-2.556556053
177.32850,-3.472139276
177.32900,-0.420195199
177.32950,3.547332101
177.33000,5.988887363
177.33050,5.683692955
177.33100,4.157720917
177.33150,0.4953880241
177.33200,-3.166944868
177.33250,-3.472139276
177.33300,2.631748878
177.33350,6.29408177
177.33400,-5.303305722
177.33450,-30.63444156
177.33500,-46.80974517
177.33550,-39.79027379
177.33600,-23.61497018
177.33650,-21.47860933
177.33700,-30.93963597
177.33750,-29.41366393
177.33800,-10.18641625
177.33850,8.430442624
177.33900,10.26160907
177.33950,-2.251361645
177.34000,-19.64744288
177.34050,-30.93963597
177.34100,-21.78380374
177.34150,16.97588604
177.34200,68.85893535
177.34250,95.71604323
177.34300,80.15112843
177.34350,45.66416036
177.34400,24.60574623
177.34450,21.55380216
177.34500,22.16419097
177.34550,17.89146926
177.34600,12.09277552
177.34650,2.631748878
177.34700,-12.62797151
177.34750,-26.05652545
177.34800,-25.44613663
177.34850,-13.23836032
177.34900,-4.692916907
177.34950,-4.082528091
177.35000,-4.082528091
177.35050,-1.335778422
177.35100,-1.64097283
177.35150,-8.050055392
177.35200,-14.76433236
177.35250,-21.17341492
177.35300,-33.38119123
177.35350,-48.33571721
177.35400,-50.16688365
177.35450,-31.85521919
177.35500,-6.524083353
177.35550,9.651220255
177.35600,16.36549722
177.35650,18.50185808
177.35700,13.61874756
177.35750,-0.420195199
177.35800,-13.23836032
177.35850,-12.62797151
177.35900,-7.134472168
177.35950,-11.71238828
177.36000,-24.225359
177.36050,-26.36171985
177.36100,-11.71238828
177.36150,8.430442624
177.36200,25.21613505
177.36250,33.76157846
177.36300,29.79405116
177.36350,12.09277552
177.36400,-7.744860984
177.36450,-18.42666525
177.36500,-29.41366393
177.36550,-54.74479977
177.36600,-84.34865732
177.36650,-90.75773988
177.36700,-68.47854812
177.36750,-41.01105142
177.36800,-25.14094222
177.36850,-15.98510999
177.36900,-7.744860984
177.36950,-5.303305722
177.37000,-4.998111315
177.37050,7.209664994
177.37100,31.01482879
177.37150,40.17066103
177.37200,16.97588604
177.37250,-19.95263729
177.37300,-37.95910735
177.37350,-25.75133104
177.37400,-0.7253896067
177.37450,13.31355315
177.37500,13.00835874
177.37550,16.97588604
177.37600,47.1901324
177.37650,96.93682086
177.37700,127.761456
177.37750,110.3653748
177.37800,59.70310312
177.37850,15.14471959
177.37900,-7.134472168
177.37950,-20.86822052
177.38000,-33.68638564
177.38050,-33.38119123
177.38100,-11.71238828
177.38150,16.06030282
177.38200,31.62521761
177.38250,31.01482879
177.38300,23.99535742
177.38350,17.28108045
177.38400,11.4823867
177.38450,4.157720917
177.38500,-5.913694538
177.38550,-17.51108203
177.38600,-24.225359
177.38650,-22.69938696
177.38700,-17.81627644
177.38750,-15.37472118
177.38800,-14.45913795
177.38850,-11.10199947
177.38900,-7.134472168
177.38950,-6.829277761
177.39000,-7.439666576
177.39050,-4.082528091
177.39100,1.105776839
177.39150,2.936943286
177.39200,1.716165655
177.39250,2.631748878
177.39300,4.157720917
177.39350,1.105776839
177.39400,-3.777333684
177.39450,-1.946167238
177.39500,6.904470586
177.39550,10.56680348
177.39600,0.1901936164
177.39650,-13.84874914
177.39700,-15.06952677
177.39750,-2.556556053
177.39800,8.125248217
177.39850,8.125248217
177.39900,2.32655447
177.39950,-1.335778422
177.40000,-8.660444207
177.40050,-24.225359
177.40100,-38.56949616
177.40150,-34.90716327
177.40200,-13.84874914
177.40250,3.242137693
177.40300,0.8005824318
177.40350,-13.84874914
177.40400,-22.39419255
177.40450,-15.98510999
177.40500,-1.946167238
177.40550,7.820053809
177.40600,9.04083144
177.40650,3.242137693
177.40700,-4.998111315
177.40750,-11.71238828
177.40800,-14.15394355
177.40850,-12.62797151
177.40900,-11.10199947
177.40950,-15.37472118
177.41000,-26.05652545
177.41050,-33.68638564
177.41100,-26.66691426
177.41150,-6.829277761
177.41200,9.04083144
177.41250,12.70316433
177.41300,14.22913637
177.41350,27.3524959
177.41400,45.35896596
177.41450,47.49532681
177.41500,29.18366235
177.41550,6.29408177
177.41600,-4.998111315
177.41650,-6.218888945
177.41700,-3.472139276
177.41750,1.105776839
177.41800,8.430442624
177.41850,13.31355315
177.41900,13.31355315
177.41950,12.09277552
177.42000,13.00835874
177.42050,14.53433078
177.42100,14.53433078
177.42150,16.36549722
177.42200,19.72263571
177.42250,18.50185808
177.42300,8.430442624
177.42350,-3.777333684
177.42400,-9.881221838
177.42450,-9.57602743
177.42500,-8.050055392
177.42550,-6.829277761
177.42600,-3.472139276
177.42650,0.1901936164
177.42700,1.716165655
177.42750,0.1901936164
177.42800,-7.439666576
177.42850,-26.66691426
177.42900,-51.08246688
177.42950,-57.79674385
177.43000,-31.55002478
177.43050,10.26160907
177.43100,34.37196728
177.43150,30.40443998
177.43200,19.4174413
177.43250,18.80705249
177.43300,19.11224689
177.43350,9.04083144
177.43400,-1.030584014
177.43450,2.32655447
177.43500,13.61874756
177.43550,17.28108045
177.43600,11.4823867
177.43650,5.378498547
177.43700,1.105776839
177.43750,-5.60850013
177.43800,-9.881221838
177.43850,-2.251361645
177.43900,14.83952519
177.43950,27.65769031
177.44000,30.09924557
177.44050,27.65769031
177.44100,22.77457979
177.44150,14.83952519
177.44200,7.209664994
177.44250,5.988887363
177.44300,7.514859401
177.44350,3.547332101
177.44400,-3.472139276
177.44450,-4.692916907
177.44500,-0.420195199
177.44550,-0.1150007913
177.44600,-5.60850013
177.44650,-11.71238828
177.44700,-15.06952677
177.44750,-18.73185966
177.44800,-24.225359
177.44850,-29.71885834
177.44900,-34.60196886
177.44950,-35.82274649
177.45000,-27.88769189
177.45050,-14.45913795
177.45100,-12.01758269
177.45150,-25.75133104
177.45200,-34.90716327
177.45250,-22.69938696
177.45300,-3.166944868
177.45350,-3.166944868
177.45400,-21.78380374
177.45450,-36.43313531
177.45500,-40.40066261
177.45550,-40.0954682
177.45600,-25.44613663
177.45650,22.16419097
177.45700,89.61215507
177.45750,128.6770393
177.45800,115.5536797
177.45850,78.01476758
177.45900,56.04077023
177.45950,54.51479819
177.46000,54.20960378
177.46050,43.52779951
177.46100,27.65769031
177.46150,12.09277552
177.46200,-0.1150007913
177.46250,-5.913694538
177.46300,-5.303305722
177.46350,-2.861750461
177.46400,-4.998111315
177.46450,-17.81627644
177.46500,-43.45260668
177.46550,-71.53049219
177.46600,-82.21229646
177.46650,-62.37465996
177.46700,-22.39419255
177.46750,21.55380216
177.46800,67.63815772
177.46850,111.8913468
177.46900,130.5082057
177.46950,100.9043482
177.47000,38.33949458
177.47050,-9.57602743
177.47100,-17.81627644
177.47150,-5.913694538
177.47200,-5.60850013
177.47250,-26.05652545
177.47300,-55.66038299
177.47350,-80.68632442
177.47400,-92.89410073
177.47450,-89.53696225
177.47500,-76.71879712
177.47550,-64.20582641
177.47600,-55.66038299
177.47650,-46.19935635
177.47700,-34.60196886
177.47750,-26.05652545
177.47800,-22.69938696
177.47850,-19.64744288
177.47900,-13.23836032
177.47950,-5.913694538
177.48000,-2.556556053
177.48050,-4.387722499
177.48100,-9.57602743
177.48150,-15.37472118
177.48200,-21.17341492
177.48250,-26.97210867
177.48300,-32.46560801
177.48350,-33.68638564
177.48400,-30.02405275
177.48450,-26.36171985
177.48500,-26.36171985
177.48550,-20.86822052
177.48600,2.936943286
177.48650,42.30702188
177.48700,77.09918436
177.48750,92.96929356
177.48800,93.27448797
177.48850,83.81346133
177.48900,63.36543601
177.48950,33.15118965
177.49000,5.988887363
177.49050,-3.777333684
177.49100,2.021360063
177.49150,11.78758111
177.49200,16.06030282
177.49250,14.83952519
177.49300,13.61874756
177.49350,16.36549722
177.49400,21.24860775
177.49450,20.63821893
177.49500,9.04083144
177.49550,-8.050055392
177.49600,-21.17341492
177.49650,-25.75133104
177.49700,-25.14094222
177.49750,-21.47860933
177.49800,-15.67991558
177.49850,-11.40719388
177.49900,-10.18641625
177.49950,-6.524083353
177.50000,4.768109732
177.50050,19.72263571
177.50100,28.26807912
177.50150,28.57327353
177.50200,25.52132946
177.50250,17.89146926
177.50300,4.157720917
177.50350,-8.050055392
177.50400,-9.57602743
177.50450,-2.251361645
177.50500,2.631748878
177.50550,2.631748878
177.50600,0.1901936164
177.50650,-5.913694538
177.50700,-16.59549881
177.50750,-22.69938696
177.50800,-18.73185966
177.50850,-15.06952677
177.50900,-21.78380374
177.50950,-26.36171985
177.51000,-8.050055392
177.51050,27.3524959
177.51100,50.85246529
177.51150,48.41091003
177.51200,35.59274491
177.51250,30.40443998
177.51300,30.70963439
177.51350,22.46938538
177.51400,-3.472139276
177.51450,-43.14741228
177.51500,-77.93957476
177.51550,-85.56943495
177.51600,-63.900632
177.51650,-33.38119123
177.51700,-15.06952677
177.51750,-11.40719388
177.51800,-18.12147085
177.51850,-37.65391294
177.51900,-62.98504878
177.51950,-75.19282509
177.52000,-72.14088101
177.52050,-77.63438035
177.52100,-95.94604481
177.52150,-91.36812869
177.52200,-41.01105142
177.52250,17.58627486
177.52300,35.59274491
177.52350,28.26807912
177.52400,49.02129885
177.52450,100.9043482
177.52500,131.1185945
177.52550,110.6705692
177.52600,70.07971298
177.52650,45.66416036
177.52700,35.59274491
177.52750,26.13171827
177.52800,17.89146926
177.52850,7.514859401
177.52900,-17.20588762
177.52950,-48.64091162
177.53000,-50.47207806
177.53050,-5.303305722
177.53100,58.17713108
177.53150,96.02123763
177.53200,94.80046
177.53250,71.30049061
177.53300,43.83299392
177.53350,20.63821893
177.53400,4.768109732
177.53450,-5.303305722
177.53500,-16.59549881
177.53550,-29.10846952
177.53600,-36.43313531
177.53650,-33.07599682
177.53700,-20.86822052
177.53750,-4.387722499
177.53800,12.39796992
177.53850,25.52132946
177.53900,33.45638406
177.53950,38.64468899
177.54000,41.69663306
177.54050,36.81352254
177.54100,21.55380216
177.54150,4.462915324
177.54200,-1.946167238
177.54250,-0.1150007913
177.54300,-0.1150007913
177.54350,-6.524083353
177.54400,-15.67991558
177.54450,-25.14094222
177.54500,-34.60196886
177.54550,-38.87469057
177.54600,-32.77080242
177.54650,-20.56302611
177.54700,-12.01758269
177.54750,-11.10199947
177.54800,-12.3227771
177.54850,-12.3227771
177.54900,-11.71238828
177.54950,-10.79680506
177.55000,-8.965638615
177.55050,-7.439666576
177.55100,-7.439666576
177.55150,-7.439666576
177.55200,-5.303305722
177.55250,-2.251361645
177.55300,0.4953880241
177.55350,4.462915324
177.55400,8.430442624
177.55450,7.209664994
177.55500,-2.556556053
177.55550,-17.51108203
177.55600,-29.41366393
177.55650,-33.68638564
177.55700,-31.85521919
177.55750,-30.32924715
177.55800,-35.21235768
177.55850,-41.62144024
177.55900,-37.34871853
177.55950,-16.2903044
177.56000,12.09277552
177.56050,33.45638406
177.56100,43.52779951
177.56150,47.49532681
177.56200,45.96935477
177.56250,35.2875505
177.56300,18.19666367
177.56350,3.242137693
177.56400,-4.692916907
177.56450,-4.998111315
177.56500,8.430442624
177.56550,33.45638406
177.56600,49.02129885
177.56650,33.76157846
177.56700,-1.335778422
177.56750,-23.30977578
177.56800,-20.56302611
177.56850,-13.23836032
177.56900,-14.45913795
177.56950,-11.10199947
177.57000,6.29408177
177.57050,14.83952519
177.57100,-8.965638615
177.57150,-48.94610602
177.57200,-65.42660404
177.57250,-46.50455076
177.57300,-15.67991558
177.57350,3.242137693
177.57400,12.09277552
177.57450,19.4174413
177.57500,25.82652386
177.57550,27.96288472
177.57600,23.99535742
177.57650,14.53433078
177.57700,0.4953880241
177.57750,-12.3227771
177.57800,-19.64744288
177.57850,-23.92016459
177.57900,-28.80327512
177.57950,-30.63444156
177.58000,-26.36171985
177.58050,-23.30977578
177.58100,-29.71885834
177.58150,-37.65391294
177.58200,-33.99158005
177.58250,-18.73185966
177.58300,-4.692916907
177.58350,3.547332101
177.58400,13.00835874
177.58450,23.99535742
177.58500,30.40443998
177.58550,29.18366235
177.58600,23.07977419
177.58650,9.956414663
177.58700,-8.355249799
177.58750,-15.06952677
177.58800,4.157720917
177.58850,34.06677287
177.58900,40.78104984
177.58950,16.67069163
177.59000,-8.965638615
177.59050,-14.45913795
177.59100,-9.57602743
177.59150,-11.40719388
177.59200,-18.12147085
177.59250,-16.2903044
177.59300,-1.64097283
177.59350,22.46938538
177.59400,52.98882615
177.59450,76.79398995
177.59500,77.09918436
177.59550,52.37843733
177.59600,24.91094064
177.59650,11.78758111
177.59700,5.378498547
177.59750,-6.829277761
177.59800,-21.78380374
177.59850,-27.88769189
177.59900,-29.41366393
177.59950,-37.04352412
177.60000,-44.97857872
177.60050,-38.56949616
177.60100,-21.78380374
177.60150,-13.84874914
177.60200,-19.95263729
177.60250,-22.69938696
177.60300,-12.3227771
177.60350,-0.1150007913
177.60400,-0.420195199
177.60450,-7.744860984
177.60500,-7.134472168
177.60550,3.852526509
177.60600,17.28108045
177.60650,27.3524959
177.60700,33.15118965
177.60750,31.01482879
177.60800,19.72263571
177.60850,6.29408177
177.60900,0.8005824318
177.60950,3.852526509
177.61000,9.346025847
177.61050,14.22913637
177.61100,18.19666367
177.61150,16.97588604
177.61200,7.820053809
177.61250,-1.64097283
177.61300,-6.218888945
177.61350,-11.40719388
177.61400,-23.92016459
177.61450,-35.21235768
177.61500,-33.07599682
177.61550,-23.92016459
177.61600,-25.75133104
177.61650,-35.82274649
177.61700,-31.85521919
177.61750,-7.439666576
177.61800,14.53433078
177.61850,16.36549722
177.61900,8.430442624
177.61950,5.07330414
177.62000,-1.335778422
177.62050,-23.61497018
177.62100,-48.33571721
177.62150,-44.67338432
177.62200,-5.913694538
177.62250,39.2550778
177.62300,54.51479819
177.62350,31.93041202
177.62400,-6.218888945
177.62450,-32.77080242
177.62500,-39.17988498
177.62550,-34.90716327
177.62600,-30.63444156
177.62650,-24.83574782
177.62700,-13.23836032
177.62750,-0.1150007913
177.62800,5.683692955
177.62850,6.599276178
177.62900,17.28108045
177.62950,45.66416036
177.63000,79.23554521
177.63050,94.4952656
177.63100,78.31996199
177.63150,40.78104984
177.63200,3.547332101
177.63250,-14.76433236
177.63300,-12.3227771
177.63350,1.410971247
177.63400,17.28108045
177.63450,29.48885676
177.63500,34.37196728
177.63550,29.79405116
177.63600,18.19666367
177.63650,8.430442624
177.63700,5.683692955
177.63750,6.904470586
177.63800,6.599276178
177.63850,5.988887363
177.63900,7.820053809
177.63950,9.651220255
177.64000,7.820053809
177.64050,2.631748878
177.64100,-0.1150007913
177.64150,1.410971247
177.64200,4.768109732
177.64250,5.07330414
177.64300,-0.7253896067
177.64350,-13.23836032
177.64400,-27.88769189
177.64450,-34.60196886
177.64500,-28.1928863
177.64550,-17.20588762
177.64600,-17.81627644
177.64650,-32.77080242
177.64700,-44.36818991
177.64750,-36.43313531
177.64800,-16.90069321
177.64850,-4.082528091
177.64900,1.410971247
177.64950,16.97588604
177.65000,47.1901324
177.65050,73.13165706
177.65100,75.87840673
177.65150,59.39790871
177.65200,36.20313373
177.65250,11.4823867
177.65300,-13.54355473
177.65350,-33.07599682
177.65400,-44.0629955
177.65450,-57.49154944
177.65500,-84.34865732
177.65550,-117.3096533
177.65600,-137.4524843
177.65650,-131.3485961
177.65700,-93.19929514
177.65750,-26.97210867
177.65800,39.86546662
177.65850,65.80699127
177.65900,37.42391136
177.65950,-8.355249799
177.66000,-31.55002478
177.66050,-33.99158005
177.66100,-40.70585702
177.66150,-51.08246688
177.66200,-47.11493958
177.66250,-36.1279409
177.66300,-38.56949616
177.66350,-37.95910735
177.66400,7.209664994
177.66450,96.32643204
177.66500,168.3523123
177.66550,175.676978
177.66600,133.5601498
177.66650,84.11865573
177.66700,43.52779951
177.66750,9.651220255
177.66800,-9.270833022
177.66850,-3.777333684
177.66900,14.53433078
177.66950,24.30055182
177.67000,20.94341334
177.67050,16.06030282
177.67100,14.22913637
177.67150,8.125248217
177.67200,-8.965638615
177.67250,-35.51755208
177.67300,-61.15388233
177.67350,-73.36165864
177.67400,-66.64738167
177.67450,-48.94610602
177.67500,-30.32924715
177.67550,-10.49161065
177.67600,16.06030282
177.67650,40.78104984
177.67700,48.10571563
177.67750,38.03430017
177.67800,25.82652386
177.67850,18.19666367
177.67900,10.26160907
177.67950,1.716165655
177.68000,0.1901936164
177.68050,4.768109732
177.68100,5.988887363
177.68150,4.462915324
177.68200,10.87199789
177.68250,21.24860775
177.68300,18.19666367
177.68350,-0.1150007913
177.68400,-15.37472118
177.68450,-15.98510999
177.68500,-12.62797151
177.68550,-17.81627644
177.68600,-28.1928863
177.68650,-35.51755208
177.68700,-41.31624583
177.68750,-44.0629955
177.68800,-39.17988498
177.68850,-28.1928863
177.68900,-15.67991558
177.68950,8.735637032
177.69000,59.70310312
177.69050,118.6056238
177.69100,139.6640379
177.69150,105.7874587
177.69200,52.07324293
177.69250,15.14471959
177.69300,-7.134472168
177.69350,-30.32924715
177.69400,-43.75780109
177.69450,-34.60196886
177.69500,-19.34224848
177.69550,-23.30977578
177.69600,-37.65391294
177.69650,-37.34871853
177.69700,-23.00458137
177.69750,-14.15394355
177.69800,-6.524083353
177.69850,20.94341334
177.69900,61.53426956
177.69950,75.57321232
177.70000,45.66416036
177.70050,-1.335778422
177.70100,-32.46560801
177.70150,-41.92663465
177.70200,-41.62144024
177.70250,-39.48507938
177.70300,-41.31624583
177.70350,-49.55649484
177.70400,-53.52402214
177.70450,-36.73832972
177.70500,-6.524083353
177.70550,9.956414663
177.70600,3.547332101
177.70650,-4.082528091
177.70700,-0.7253896067
177.70750,-2.251361645
177.70800,-20.2578317
177.70850,-35.51755208
177.70900,-24.83574782
177.70950,0.8005824318
177.71000,16.67069163
177.71050,20.02783012
177.71100,28.26807912
177.71150,42.00182747
177.71200,44.13818833
177.71250,30.70963439
177.71300,14.83952519
177.71350,3.852526509
177.71400,-10.18641625
177.71450,-29.41366393
177.71500,-41.31624583
177.71550,-36.73832972
177.71600,-21.17341492
177.71650,-5.60850013
177.71700,3.852526509
177.71750,4.462915324
177.71800,-3.472139276
177.71850,-10.79680506
177.71900,-8.660444207
177.71950,-4.387722499
177.72000,-12.62797151
177.72050,-29.41366393
177.72100,-36.1279409
177.72150,-26.36171985
177.72200,-13.84874914
177.72250,-10.18641625
177.72300,-9.270833022
177.72350,-3.166944868
177.72400,4.768109732
177.72450,9.956414663
177.72500,14.83952519
177.72550,20.02783012
177.72600,20.02783012
177.72650,15.75510841
177.72700,15.14471959
177.72750,17.58627486
177.72800,9.651220255
177.72850,-12.62797151
177.72900,-30.32924715
177.72950,-24.53055341
177.73000,-3.472139276
177.73050,9.04083144
177.73100,7.209664994
177.73150,1.105776839
177.73200,-1.030584014
177.73250,-0.1150007913
177.73300,2.32655447
177.73350,6.904470586
177.73400,7.514859401
177.73450,-1.64097283
177.73500,-16.90069321
177.73550,-25.44613663
177.73600,-22.69938696
177.73650,-14.76433236
177.73700,-4.998111315
177.73750,8.430442624
177.73800,27.65769031
177.73850,44.74857714
177.73900,48.71610444
177.73950,37.72910576
177.74000,24.60574623
177.74050,24.60574623
177.74100,37.72910576
177.74150,43.52779951
177.74200,24.91094064
177.74250,-6.829277761
177.74300,-23.00458137
177.74350,-12.01758269
177.74400,6.599276178
177.74450,8.735637032
177.74500,-8.660444207
177.74550,-32.77080242
177.74600,-51.69285569
177.74650,-59.01752148
177.74700,-53.52402214
177.74750,-42.84221787
177.74800,-37.04352412
177.74850,-30.02405275
177.74900,-4.998111315
177.74950,35.2875505
177.75000,62.44985279
177.75050,57.56674226
177.75100,36.50832813
177.75150,24.91094064
177.75200,23.07977419
177.75250,16.06030282
177.75300,4.157720917
177.75350,-0.1150007913
177.75400,-0.1150007913
177.75450,-5.913694538
177.75500,-18.12147085
177.75550,-25.75133104
177.75600,-28.1928863
177.75650,-34.29677445
177.75700,-43.75780109
177.75750,-46.19935635
177.75800,-37.95910735
177.75850,-23.92016459
177.75900,-9.270833022
177.75950,1.105776839
177.76000,2.631748878
177.76050,-0.7253896067
177.76100,9.651220255
177.76150,46.88493799
177.76200,94.4952656
177.76250,124.709512
177.76300,125.3199008
177.76350,99.98876493
177.76400,56.04077023
177.76450,6.29408177
177.76500,-25.14094222
177.76550,-26.66691426
177.76600,-13.54355473
177.76650,-8.050055392
177.76700,-8.050055392
177.76750,-0.1150007913
177.76800,11.78758111
177.76850,13.31355315
177.76900,5.683692955
177.76950,1.105776839
177.77000,0.8005824318
177.77050,-2.861750461
177.77100,-8.050055392
177.77150,-8.355249799
177.77200,-13.54355473
177.77250,-37.95910735
177.77300,-71.8356866
177.77350,-91.06293429
177.77400,-86.79021258
177.77450,-69.08893693
177.77500,-45.58896754
177.77550,-18.12147085
177.77600,1.105776839
177.77650,2.32655447
177.77700,-0.420195199
177.77750,20.02783012
177.77800,66.7225745
177.77850,104.5666811
177.77900,99.98876493
177.77950,56.95635345
177.78000,8.735637032
177.78050,-16.59549881
177.78100,-14.45913795
177.78150,0.8005824318
177.78200,13.61874756
177.78250,15.75510841
177.78300,7.209664994
177.78350,-8.355249799
177.78400,-23.92016459
177.78450,-29.41366393
177.78500,-22.69938696
177.78550,-15.06952677
177.78600,-18.73185966
177.78650,-29.41366393
177.78700,-33.68638564
177.78750,-30.32924715
177.78800,-25.14094222
177.78850,-11.71238828
177.78900,17.58627486
177.78950,49.93688207
177.79000,56.34596463
177.79050,32.84599524
177.79100,8.735637032
177.79150,5.07330414
177.79200,11.17719229
177.79250,9.04083144
177.79300,-0.1150007913
177.79350,-5.913694538
177.79400,-9.270833022
177.79450,-14.15394355
177.79500,-16.90069321
177.79550,-13.54355473
177.79600,-7.744860984
177.79650,-4.082528091
177.79700,-1.64097283
177.79750,0.1901936164
177.79800,2.631748878
177.79850,11.17719229
177.79900,33.45638406
177.79950,58.48232549
177.80000,62.44985279
177.80050,36.81352254
177.80100,2.021360063
177.80150,-20.2578317
177.80200,-30.02405275
177.80250,-33.99158005
177.80300,-31.55002478
177.80350,-19.95263729
177.80400,-7.439666576
177.80450,-4.692916907
177.80500,-8.355249799
177.80550,-10.49161065
177.80600,-10.49161065
177.80650,-12.93316591
177.80700,-15.37472118
177.80750,-12.3227771
177.80800,-5.60850013
177.80850,-1.946167238
177.80900,-4.082528091
177.80950,-7.134472168
177.81000,-7.134472168
177.81050,-4.387722499
177.81100,-0.7253896067
177.81150,1.716165655
177.81200,2.021360063
177.81250,-0.1150007913
177.81300,-7.744860984
177.81350,-23.61497018
177.81400,-46.19935635
177.81450,-63.900632
177.81500,-62.67985437
177.81550,-40.0954682
177.81600,-5.60850013
177.81650,25.82652386
177.81700,44.44338273
177.81750,45.96935477
177.81800,35.89793932
177.81850,24.91094064
177.81900,20.33302452
177.81950,18.50185808
177.82000,13.92394196
177.82050,9.04083144
177.82100,8.735637032
177.82150,9.346025847
177.82200,3.852526509
177.82250,-6.829277761
177.82300,-15.06952677
177.82350,-16.2903044
177.82400,-13.84874914
177.82450,-10.49161065
177.82500,-4.387722499
177.82550,5.378498547
177.82600,16.97588604
177.82650,25.21613505
177.82700,27.65769031
177.82750,23.07977419
177.82800,13.00835874
177.82850,1.716165655
177.82900,-8.355249799
177.82950,-20.56302611
177.83000,-36.1279409
177.83050,-47.72532839
177.83100,-44.97857872
177.83150,-30.02405275
177.83200,-15.98510999
177.83250,-10.79680506
177.83300,-11.10199947
177.83350,-11.10199947
177.83400,-8.660444207
177.83450,-0.1150007913
177.83500,17.58627486
177.83550,35.89793932
177.83600,40.78104984
177.83650,29.79405116
177.83700,16.67069163
177.83750,12.39796992
177.83800,8.125248217
177.83850,-8.050055392
177.83900,-28.80327512
177.83950,-30.32924715
177.84000,-4.082528091
177.84050,33.76157846
177.84100,61.22907516
177.84150,66.7225745
177.84200,52.37843733
177.84250,26.13171827
177.84300,-1.030584014
177.84350,-18.73185966
177.84400,-27.27730308
177.84450,-36.73832972
177.84500,-53.82921655
177.84550,-76.10840831
177.84600,-100.2187665
177.84650,-123.1083471
177.84700,-132.5693737
177.84750,-105.4070714
177.84800,-31.24483038
177.84850,64.28101923
177.84900,131.1185945
177.84950,135.6965106
177.85000,89.00176626
177.85050,33.45638406
177.85100,4.462915324
177.85150,6.29408177
177.85200,21.24860775
177.85250,34.37196728
177.85300,39.56027221
177.85350,32.23560643
177.85400,8.430442624
177.85450,-20.56302611
177.85500,-26.97210867
177.85550,-0.1150007913
177.85600,31.01482879
177.85650,27.3524959
177.85700,-10.18641625
177.85750,-41.92663465
177.85800,-38.87469057
177.85850,-13.54355473
177.85900,6.904470586
177.85950,14.83952519
177.86000,16.97588604
177.86050,14.83952519
177.86100,7.820053809
177.86150,-0.420195199
177.86200,-6.829277761
177.86250,-13.54355473
177.86300,-20.86822052
177.86350,-21.78380374
177.86400,-11.10199947
177.86450,6.29408177
177.86500,23.07977419
177.86550,36.20313373
177.86600,40.47585543
177.86650,29.79405116
177.86700,9.346025847
177.86750,-3.777333684
177.86800,-1.64097283
177.86850,4.157720917
177.86900,2.936943286
177.86950,-1.030584014
177.87000,-1.946167238
177.87050,-4.998111315
177.87100,-11.40719388
177.87150,-6.218888945
177.87200,20.33302452
177.87250,53.29402056
177.87300,66.41738009
177.87350,56.04077023
177.87400,41.08624425
177.87450,33.15118965
177.87500,27.65769031
177.87550,20.94341334
177.87600,15.449914
177.87650,13.61874756
177.87700,11.78758111
177.87750,7.209664994
177.87800,-1.030584014
177.87850,-17.51108203
177.87900,-42.84221787
177.87950,-67.25777049
177.88000,-78.85515798
177.88050,-76.71879712
177.88100,-68.47854812
177.88150,-57.49154944
177.88200,-44.36818991
177.88250,-34.90716327
177.88300,-30.93963597
177.88350,-25.14094222
177.88400,-11.10199947
177.88450,-0.1150007913
177.88500,-3.166944868
177.88550,-12.01758269
177.88600,-6.218888945
177.88650,12.09277552
177.88700,19.4174413
177.88750,2.32655447
177.88800,-23.61497018
177.88850,-37.04352412
177.88900,-32.77080242
177.88950,-22.39419255
177.89000,-14.15394355
177.89050,-8.965638615
177.89100,-1.030584014
177.89150,14.22913637
177.89200,36.20313373
177.89250,53.59921496
177.89300,60.92388075
177.89350,66.7225745
177.89400,76.18360113
177.89450,73.43685146
177.89500,38.33949458
177.89550,-19.03705407
177.89600,-63.900632
177.89650,-76.41360272
177.89700,-69.39413134
177.89750,-63.900632
177.89800,-62.67985437
177.89850,-61.45907674
177.89900,-62.06946555
177.89950,-58.40713266
177.90000,-31.24483038
177.90050,27.96288472
177.90100,94.80046
177.90150,133.2549554
177.90200,131.7289833
177.90250,108.5342084
177.90300,82.5926837
177.90350,59.39790871
177.90400,37.11871695
177.90450,18.80705249
177.90500,9.04083144
177.90550,7.514859401
177.90600,6.904470586
177.90650,-1.030584014
177.90700,-17.51108203
177.90750,-30.02405275
177.90800,-27.27730308
177.90850,-13.84874914
177.90900,-7.134472168
177.90950,-15.37472118
177.91000,-28.1928863
177.91050,-35.82274649
177.91100,-40.40066261
177.91150,-46.50455076
177.91200,-47.42013399
177.91250,-35.51755208
177.91300,-15.67991558
177.91350,2.32655447
177.91400,18.80705249
177.91450,37.11871695
177.91500,52.98882615
177.91550,58.17713108
177.91600,53.59921496
177.91650,45.35896596
177.91700,31.93041202
177.91750,8.125248217
177.91800,-19.64744288
177.91850,-40.70585702
177.91900,-55.04999418
177.91950,-70.92010338
177.92000,-82.82268528
177.92050,-77.93957476
177.92100,-59.01752148
177.92150,-46.50455076
177.92200,-46.80974517
177.92250,-38.56949616
177.92300,-4.387722499
177.92350,38.94988339
177.92400,66.11218568
177.92450,74.04724028
177.92500,77.70957317
177.92550,76.18360113
177.92600,52.98882615
177.92650,7.820053809
177.92700,-32.46560801
177.92750,-47.11493958
177.92800,-42.53702346
177.92850,-36.73832972
177.92900,-34.29677445
177.92950,-29.71885834
177.93000,-25.44613663
177.93050,-28.1928863
177.93100,-35.82274649
177.93150,-36.73832972
177.93200,-26.05652545
177.93250,-14.76433236
177.93300,-14.76433236
177.93350,-24.53055341
177.93400,-33.07599682
177.93450,-33.68638564
177.93500,-26.97210867
177.93550,-15.37472118
177.93600,1.410971247
177.93650,21.24860775
177.93700,37.42391136
177.93750,44.74857714
177.93800,42.61221629
177.93850,33.45638406
177.93900,20.33302452
177.93950,7.209664994
177.94000,-1.335778422
177.94050,-4.082528091
177.94100,-2.861750461
177.94150,-0.1150007913
177.94200,4.768109732
177.94250,10.56680348
177.94300,15.449914
177.94350,20.94341334
177.94400,31.93041202
177.94450,45.96935477
177.94500,52.98882615
177.94550,46.27454918
177.94600,35.2875505
177.94650,33.15118965
177.94700,37.11871695
177.94750,29.18366235
177.94800,0.4953880241
177.94850,-36.1279409
177.94900,-59.32271589
177.94950,-59.62791029
177.95000,-45.58896754
177.95050,-34.29677445
177.95100,-34.60196886
177.95150,-39.48507938
177.95200,-32.77080242
177.95250,-8.355249799
177.95300,20.02783012
177.95350,33.76157846
177.95400,28.26807912
177.95450,13.00835874
177.95500,-1.946167238
177.95550,-13.23836032
177.95600,-17.51108203
177.95650,-14.45913795
177.95700,-10.18641625
177.95750,-10.18641625
177.95800,-8.965638615
177.95850,1.105776839
177.95900,16.06030282
177.95950,20.02783012
177.96000,10.87199789
177.96050,-0.1150007913
177.96100,-9.881221838
177.96150,-24.83574782
177.96200,-41.01105142
177.96250,-40.40066261
177.96300,-20.2578317
177.96350,-1.946167238
177.96400,2.936943286
177.96450,19.72263571
177.96500,69.46932416
177.96550,124.4043176
177.96600,132.949761
177.96650,91.44332152
177.96700,47.1901324
177.96750,28.57327353
177.96800,13.92394196
177.96850,-18.73185966
177.96900,-50.16688365
177.96950,-51.69285569
177.97000,-37.65391294
177.97050,-44.67338432
177.97100,-73.36165864
177.97150,-87.7057958
177.97200,-64.81621522
177.97250,-22.39419255
177.97300,7.820053809
177.97350,15.14471959
177.97400,9.651220255
177.97450,8.430442624
177.97500,21.85899656
177.97550,47.1901324
177.97600,67.33296331
177.97650,66.11218568
177.97700,47.1901324
177.97750,26.74210709
177.97800,13.92394196
177.97850,4.157720917
177.97900,-4.998111315
177.97950,-11.40719388
177.98000,-14.45913795
177.98050,-16.59549881
177.98100,-14.45913795
177.98150,-3.777333684
177.98200,8.125248217
177.98250,9.346025847
177.98300,-1.64097283
177.98350,-12.3227771
177.98400,-13.23836032
177.98450,-8.965638615
177.98500,-4.082528091
177.98550,5.378498547
177.98600,21.85899656
177.98650,34.06677287
177.98700,31.62521761
177.98750,19.4174413
177.98800,9.956414663
177.98850,7.820053809
177.98900,8.430442624
177.98950,8.735637032
177.99000,9.956414663
177.99050,9.651220255
177.99100,3.852526509
177.99150,-2.556556053
177.99200,-0.1150007913
177.99250,10.26160907
177.99300,18.50185808
177.99350,17.58627486
177.99400,12.70316433
177.99450,7.209664994
177.99500,-4.387722499
177.99550,-26.97210867
177.99600,-49.86168925
177.99650,-60.23829911
177.99700,-58.40713266
177.99750,-53.82921655
177.99800,-51.08246688
177.99850,-48.64091162
177.99900,-43.45260668
177.99950,-31.85521919
178.00000,-5.913694538
178.00050,31.01482879
178.00100,58.7875199
178.00150,55.73557582
178.00200,22.46938538
178.00250,-19.03705407
178.00300,-48.64091162
178.00350,-56.57596622
178.00400,-42.84221787
178.00450,-15.06952677
178.00500,8.735637032
178.00550,16.67069163
178.00600,11.17719229
178.00650,5.07330414
178.00700,1.716165655
178.00750,-4.082528091
178.00800,-13.54355473
178.00850,-18.73185966
178.00900,-16.2903044
178.00950,-12.01758269
178.01000,-9.881221838
178.01050,-7.134472168
178.01100,-2.556556053
178.01150,-1.64097283
178.01200,-4.082528091
178.01250,1.716165655
178.01300,27.3524959
178.01350,63.36543601
178.01400,86.560211
178.01450,80.15112843
178.01500,50.85246529
178.01550,20.02783012
178.01600,2.32655447
178.01650,-5.60850013
178.01700,-14.45913795
178.01750,-23.00458137
178.01800,-21.17341492
178.01850,-4.998111315
178.01900,16.06030282
178.01950,30.70963439
178.02000,37.42391136
178.02050,39.2550778
178.02100,34.98235609
178.02150,21.55380216
178.02200,2.631748878
178.02250,-12.62797151
178.02300,-22.39419255
178.02350,-31.24483038
178.02400,-40.70585702
178.02450,-45.28377313
178.02500,-39.79027379
178.02550,-27.88769189
178.02600,-16.2903044
178.02650,-7.744860984
178.02700,-4.082528091
178.02750,-5.913694538
178.02800,-9.57602743
178.02850,-7.439666576
178.02900,2.631748878
178.02950,13.31355315
178.03000,16.97588604
178.03050,15.14471959
178.03100,10.87199789
178.03150,2.021360063
178.03200,-12.93316591
178.03250,-26.97210867
178.03300,-32.77080242
178.03350,-38.87469057
178.03400,-53.82921655
178.03450,-66.34218726
178.03500,-52.91363332
178.03550,-12.62797151
178.03600,23.07977419
178.03650,23.69016301
178.03700,-12.93316591
178.03750,-63.29024319
178.03800,-97.77721126
178.03850,-98.08240566
178.03900,-63.59543759
178.03950,-13.23836032
178.04000,27.96288472
178.04050,50.85246529
178.04100,63.67063042
178.04150,73.13165706
178.04200,71.60568502
178.04250,53.29402056
178.04300,28.26807912
178.04350,14.22913637
178.04400,16.67069163
178.04450,25.52132946
178.04500,31.62521761
178.04550,32.84599524
178.04600,31.3200232
178.04650,27.3524959
178.04700,22.77457979
178.04750,20.02783012
178.04800,19.11224689
178.04850,17.58627486
178.04900,13.31355315
178.04950,9.651220255
178.05000,8.125248217
178.05050,4.768109732
178.05100,-5.303305722
178.05150,-19.64744288
178.05200,-30.63444156
178.05250,-34.60196886
178.05300,-35.51755208
178.05350,-33.38119123
178.05400,-24.225359
178.05450,-10.79680506
178.05500,-4.082528091
178.05550,-5.60850013
178.05600,-0.1150007913
178.05650,23.99535742
178.05700,51.1576597
178.05750,54.51479819
178.05800,30.40443998
178.05850,2.021360063
178.05900,-9.57602743
178.05950,-7.439666576
178.06000,-5.303305722
178.06050,-6.524083353
178.06100,-5.913694538
178.06150,-1.335778422
178.06200,4.157720917
178.06250,9.651220255
178.06300,15.14471959
178.06350,18.80705249
178.06400,16.06030282
178.06450,9.346025847
178.06500,5.07330414
178.06550,3.852526509
178.06600,0.1901936164
178.06650,-6.829277761
178.06700,-11.40719388
178.06750,-9.881221838
178.06800,-9.881221838
178.06850,-17.20588762
178.06900,-24.83574782
178.06950,-24.225359
178.07000,-21.47860933
178.07050,-23.61497018
178.07100,-24.53055341
178.07150,-18.12147085
178.07200,-13.84874914
178.07250,-24.83574782
178.07300,-39.48507938
178.07350,-36.73832972
178.07400,-22.39419255
178.07450,-24.225359
178.07500,-47.11493958
178.07550,-59.9331047
178.07600,-41.01105142
178.07650,-4.692916907
178.07700,25.52132946
178.07750,48.71610444
178.07800,71.30049061
178.07850,83.50826692
178.07900,70.6901018
178.07950,34.37196728
178.08000,-4.387722499
178.08050,-25.44613663
178.08100,-20.56302611
178.08150,0.8005824318
178.08200,20.94341334
178.08250,30.70963439
178.08300,39.56027221
178.08350,54.20960378
178.08400,57.56674226
178.08450,33.15118965
178.08500,-0.1150007913
178.08550,-3.777333684
178.08600,23.69016301
178.08650,43.83299392
178.08700,29.79405116
178.08750,2.021360063
178.08800,-8.355249799
178.08850,-3.777333684
178.08900,-3.777333684
178.08950,-13.23836032
178.09000,-20.56302611
178.09050,-19.95263729
178.09100,-13.54355473
178.09150,-4.692916907
178.09200,2.32655447
178.09250,0.8005824318
178.09300,-10.79680506
178.09350,-23.92016459
178.09400,-29.10846952
178.09450,-27.27730308
178.09500,-22.69938696
178.09550,-16.59549881
178.09600,-9.57602743
178.09650,-5.913694538
178.09700,-5.60850013
178.09750,-4.082528091
178.09800,1.716165655
178.09850,8.735637032
178.09900,13.00835874
178.09950,13.61874756
178.10000,12.09277552
178.10050,9.651220255
178.10100,8.430442624
178.10150,7.514859401
178.10200,0.8005824318
178.10250,-13.84874914
178.10300,-28.1928863
178.10350,-30.02405275
178.10400,-19.34224848
178.10450,-9.57602743
178.10500,-7.134472168
178.10550,-7.134472168
178.10600,-7.134472168
178.10650,-10.79680506
178.10700,-18.12147085
178.10750,-20.2578317
178.10800,-12.62797151
178.10850,-3.777333684
178.10900,-1.64097283
178.10950,-2.556556053
178.11000,-1.030584014
178.11050,0.8005824318
178.11100,0.1901936164
178.11150,0.4953880241
178.11200,6.29408177
178.11250,11.78758111
178.11300,11.78758111
178.11350,10.26160907
178.11400,10.56680348
178.11450,8.125248217
178.11500,-0.7253896067
178.11550,-8.660444207
178.11600,-8.660444207
178.11650,-7.744860984
178.11700,-13.23836032
178.11750,-15.98510999
178.11800,-4.082528091
178.11850,14.53433078
178.11900,22.46938538
178.11950,17.58627486
178.12000,13.00835874
178.12050,13.00835874
178.12100,6.29408177
178.12150,-10.18641625
178.12200,-25.14094222
178.12250,-28.49808071
178.12300,-23.61497018
178.12350,-18.42666525
178.12400,-14.45913795
178.12450,-9.881221838
178.12500,-2.861750461
178.12550,5.683692955
178.12600,12.09277552
178.12650,5.988887363
178.12700,-14.76433236
178.12750,-35.82274649
178.12800,-42.84221787
178.12850,-41.31624583
178.12900,-48.94610602
178.12950,-64.81621522
178.13000,-66.64738167
178.13050,-35.51755208
178.13100,25.21613505
178.13150,94.4952656
178.13200,146.3783149
178.13250,161.9432297
178.13300,140.2744268
178.13350,103.040709
178.13400,73.43685146
178.13450,53.29402056
178.13500,27.04730149
178.13550,-12.62797151
178.13600,-52.91363332
178.13650,-76.41360272
178.13700,-79.16035239
178.13750,-69.08893693
178.13800,-54.13441095
178.13850,-36.73832972
178.13900,-22.69938696
178.13950,-18.73185966
178.14000,-28.1928863
178.14050,-41.92663465
178.14100,-43.14741228
178.14150,-20.2578317
178.14200,20.33302452
178.14250,60.61868634
178.14300,81.67710047
178.14350,78.6251564
178.14400,58.17713108
178.14450,31.62521761
178.14500,9.346025847
178.14550,-1.64097283
178.14600,-3.166944868
178.14650,-1.946167238
178.14700,-3.166944868
178.14750,-5.303305722
178.14800,-2.251361645
178.14850,6.29408177
178.14900,16.06030282
178.14950,18.50185808
178.15000,12.39796992
178.15050,2.936943286
178.15100,-2.556556053
178.15150,-3.472139276
178.15200,-2.556556053
178.15250,-3.472139276
178.15300,-4.387722499
178.15350,-3.777333684
178.15400,-1.64097283
178.15450,-0.1150007913
178.15500,-0.1150007913
178.15550,-2.251361645
178.15600,-4.387722499
178.15650,-3.777333684
178.15700,0.1901936164
178.15750,5.07330414
178.15800,5.988887363
178.15850,4.157720917
178.15900,1.410971247
178.15950,-5.303305722
178.16000,-18.42666525
178.16050,-29.41366393
178.16100,-27.27730308
178.16150,-12.01758269
178.16200,3.242137693
178.16250,11.4823867
178.16300,18.19666367
178.16350,26.13171827
178.16400,28.57327353
178.16450,18.80705249
178.16500,3.242137693
178.16550,-8.355249799
178.16600,-12.93316591
178.16650,-12.3227771
178.16700,-8.050055392
178.16750,-1.946167238
178.16800,1.105776839
178.16850,0.4953880241
178.16900,-4.387722499
178.16950,-21.47860933
178.17000,-56.27077181
178.17050,-97.16682244
178.17100,-114.5629037
178.17150,-91.36812869
178.17200,-44.0629955
178.17250,-5.60850013
178.17300,5.988887363
178.17350,-0.7253896067
178.17400,-11.10199947
178.17450,-17.20588762
178.17500,-24.53055341
178.17550,-41.01105142
178.17600,-66.64738167
178.17650,-89.84215666
178.17700,-100.5239609
178.17750,-98.99798889
178.17800,-89.23176784
178.17850,-68.47854812
178.17900,-35.21235768
178.17950,2.32655447
178.18000,39.2550778
178.18050,83.81346133
178.18100,138.4432603
178.18150,177.2029501
178.18200,168.6575067
178.18250,122.2679567
178.18300,82.8978781
178.18350,75.57321232
178.18400,79.84593403
178.18450,69.46932416
178.18500,49.32649326
178.18550,36.20313373
178.18600,27.65769031
178.18650,13.00835874
178.18700,-2.251361645
178.18750,-4.692916907
178.18800,2.631748878
178.18850,5.07330414
178.18900,-1.335778422
178.18950,-6.218888945
178.19000,-4.998111315
178.19050,-3.777333684
178.19100,-6.829277761
178.19150,-8.355249799
178.19200,-5.303305722
178.19250,-4.692916907
178.19300,-10.18641625
178.19350,-10.79680506
178.19400,3.852526509
178.19450,28.87846794
178.19500,42.61221629
178.19550,33.45638406
178.19600,12.70316433
178.19650,-1.64097283
178.19700,-4.998111315
178.19750,-5.913694538
178.19800,-8.355249799
178.19850,-8.965638615
178.19900,-6.218888945
178.19950,-4.998111315
178.20000,-8.660444207
178.20050,-12.93316591
178.20100,-13.84874914
178.20150,-13.84874914
178.20200,-15.37472118
178.20250,-16.2903044
178.20300,-15.67991558
178.20350,-16.59549881
178.20400,-16.90069321
178.20450,-11.40719388
178.20500,-2.861750461
178.20550,-4.082528091
178.20600,-18.42666525
178.20650,-26.97210867
178.20700,-10.79680506
178.20750,21.85899656
178.20800,44.44338273
178.20850,40.78104984
178.20900,18.80705249
178.20950,-6.218888945
178.21000,-30.32924715
178.21050,-51.9980501
178.21100,-62.98504878
178.21150,-54.43960536
178.21200,-28.49808071
178.21250,-0.420195199
178.21300,15.75510841
178.21350,16.67069163
178.21400,5.988887363
178.21450,-9.881221838
178.21500,-23.61497018
178.21550,-22.69938696
178.21600,-2.251361645
178.21650,21.85899656
178.21700,27.96288472
178.21750,13.61874756
178.21800,2.936943286
178.21850,13.00835874
178.21900,30.09924557
178.21950,28.26807912
178.22000,8.430442624
178.22050,-6.218888945
178.22100,-4.082528091
178.22150,1.105776839
178.22200,-3.472139276
178.22250,-12.93316591
178.22300,-12.93316591
178.22350,-3.472139276
178.22400,4.768109732
178.22450,5.378498547
178.22500,-2.251361645
178.22550,-17.20588762
178.22600,-35.21235768
178.22650,-45.58896754
178.22700,-40.40066261
178.22750,-22.69938696
178.22800,-5.913694538
178.22850,1.105776839
178.22900,0.1901936164
178.22950,-0.7253896067
178.23000,-0.1150007913
178.23050,1.410971247
178.23100,3.547332101
178.23150,8.735637032
178.23200,17.28108045
178.23250,24.91094064
178.23300,25.82652386
178.23350,18.50185808
178.23400,5.07330414
178.23450,-11.71238828
178.23500,-26.36171985
178.23550,-30.93963597
178.23600,-22.69938696
178.23650,-8.660444207
178.23700,0.8005824318
178.23750,2.021360063
178.23800,-2.251361645
178.23850,-8.355249799
178.23900,-8.660444207
178.23950,3.852526509
178.24000,30.09924557
178.24050,52.98882615
178.24100,55.125187
178.24150,36.81352254
178.24200,18.19666367
178.24250,12.39796992
178.24300,12.70316433
178.24350,6.599276178
178.24400,-4.998111315
178.24450,-12.3227771
178.24500,-13.84874914
178.24550,-15.98510999
178.24600,-21.78380374
178.24650,-25.44613663
178.24700,-23.30977578
178.24750,-20.56302611
178.24800,-19.03705407
178.24850,-13.23836032
178.24900,-0.1150007913
178.24950,14.53433078
178.25000,20.63821893
178.25050,18.80705249
178.25100,17.28108045
178.25150,18.19666367
178.25200,19.72263571
178.25250,21.85899656
178.25300,26.74210709
178.25350,30.40443998
178.25400,29.48885676
178.25450,30.40443998
178.25500,39.86546662
178.25550,48.41091003
178.25600,41.39143866
178.25650,22.16419097
178.25700,6.904470586
178.25750,-5.60850013
178.25800,-37.95910735
178.25850,-92.89410073
178.25900,-138.9784563
178.25950,-144.77715
178.26000,-113.9525149
178.26050,-70.30971456
178.26100,-30.02405275
178.26150,-3.777333684
178.26200,-1.64097283
178.26250,-16.90069321
178.26300,-16.2903044
178.26350,20.02783012
178.26400,63.97582483
178.26450,69.46932416
178.26500,33.15118965
178.26550,-4.998111315
178.26600,-21.47860933
178.26650,-30.93963597
178.26700,-47.42013399
178.26750,-54.43960536
178.26800,-34.29677445
178.26850,-1.946167238
178.26900,14.22913637
178.26950,9.651220255
178.27000,-1.030584014
178.27050,-10.49161065
178.27100,-17.81627644
178.27150,-14.15394355
178.27200,13.00835874
178.27250,56.04077023
178.27300,88.08618303
178.27350,89.91734948
178.27400,65.80699127
178.27450,31.3200232
178.27500,2.936943286
178.27550,-8.660444207
178.27600,-4.082528091
178.27650,4.768109732
178.27700,8.735637032
178.27750,10.56680348
178.27800,13.92394196
178.27850,9.651220255
178.27900,-10.49161065
178.27950,-35.51755208
178.28000,-48.33571721
178.28050,-53.21882773
178.28100,-65.12140963
178.28150,-77.63438035
178.28200,-71.53049219
178.28250,-48.94610602
178.28300,-30.02405275
178.28350,-15.37472118
178.28400,16.36549722
178.28450,66.41738009
178.28500,104.2614866
178.28550,108.2290139
178.28600,88.69657185
178.28650,66.41738009
178.28700,49.93688207
178.28750,46.57974359
178.28800,63.67063042
178.28850,85.33943337
178.28900,78.01476758
178.28950,35.59274491
178.29000,-4.998111315
178.29050,-11.71238828
178.29100,3.852526509
178.29150,13.31355315
178.29200,9.04083144
178.29250,1.716165655
178.29300,-5.303305722
178.29350,-10.18641625
178.29400,-6.218888945
178.29450,5.07330414
178.29500,8.125248217
178.29550,-4.082528091
178.29600,-16.59549881
178.29650,-20.56302611
178.29700,-33.38119123
178.29750,-63.59543759
178.29800,-82.82268528
178.29850,-56.57596622
178.29900,4.462915324
178.29950,56.95635345
178.30000,76.79398995
178.30050,76.18360113
178.30100,70.6901018
178.30150,57.87193667
178.30200,32.84599524
178.30250,2.021360063
178.30300,-26.36171985
178.30350,-53.82921655
178.30400,-79.16035239
178.30450,-95.6408504
178.30500,-94.11487836
178.30550,-75.19282509
178.30600,-49.25130043
178.30650,-31.55002478
178.30700,-31.85521919
178.30750,-44.97857872
178.30800,-55.66038299
178.30850,-53.21882773
178.30900,-43.14741228
178.30950,-37.34871853
178.31000,-35.21235768
178.31050,-25.44613663
178.31100,0.4953880241
178.31150,36.50832813
178.31200,65.19660246
178.31250,71.60568502
178.31300,54.51479819
178.31350,27.65769031
178.31400,9.04083144
178.31450,4.768109732
178.31500,7.514859401
178.31550,7.209664994
178.31600,2.021360063
178.31650,-2.251361645
178.31700,-1.030584014
178.31750,4.768109732
178.31800,10.87199789
178.31850,13.61874756
178.31900,14.53433078
178.31950,18.80705249
178.32000,25.21613505
178.32050,26.74210709
178.32100,19.11224689
178.32150,8.430442624
178.32200,4.157720917
178.32250,6.904470586
178.32300,9.956414663
178.32350,8.735637032
178.32400,6.29408177
178.32450,5.378498547
178.32500,4.768109732
178.32550,2.631748878
178.32600,1.105776839
178.32650,-0.1150007913
178.32700,-4.692916907
178.32750,-14.76433236
178.32800,-26.05652545
178.32850,-30.32924715
178.32900,-24.53055341
178.32950,-13.23836032
178.33000,-4.692916907
178.33050,-4.082528091
178.33100,-8.965638615
178.33150,-12.3227771
178.33200,-12.3227771
178.33250,-11.40719388
178.33300,-11.10199947
178.33350,-8.050055392
178.33400,-3.166944868
178.33450,-2.251361645
178.33500,-9.270833022
178.33550,-17.81627644
178.33600,-20.56302611
178.33650,-16.90069321
178.33700,-8.965638615
178.33750,3.547332101
178.33800,18.19666367
178.33850,25.82652386
178.33900,23.99535742
178.33950,24.30055182
178.34000,37.11871695
178.34050,50.54727089
178.34100,42.91741069
178.34150,7.820053809
178.34200,-36.43313531
178.34250,-66.34218726
178.34300,-69.08893693
178.34350,-50.47207806
178.34400,-29.41366393
178.34450,-19.34224848
178.34500,-16.90069321
178.34550,-9.270833022
178.34600,0.8005824318
178.34650,-0.1150007913
178.34700,-14.15394355
178.34750,-24.83574782
178.34800,-24.225359
178.34850,-25.75133104
178.34900,-37.95910735
178.34950,-48.64091162
178.35000,-48.94610602
178.35050,-47.42013399
178.35100,-42.84221787
178.35150,-13.54355473
178.35200,42.30702188
178.35250,84.42385014
178.35300,77.40437876
178.35350,42.91741069
178.35400,27.65769031
178.35450,37.11871695
178.35500,42.61221629
178.35550,40.78104984
178.35600,51.76804852
178.35650,67.0277689
178.35700,49.63168766
178.35750,-3.777333684
178.35800,-45.58896754
178.35850,-41.92663465
178.35900,-13.84874914
178.35950,6.904470586
178.36000,25.82652386
178.36050,54.20960378
178.36100,67.63815772
178.36150,34.37196728
178.36200,-26.66691426
178.36250,-61.45907674
178.36300,-46.50455076
178.36350,-12.93316591
178.36400,2.936943286
178.36450,2.32655447
178.36500,5.378498547
178.36550,18.50185808
178.36600,33.15118965
178.36650,44.13818833
178.36700,49.63168766
178.36750,46.88493799
178.36800,34.67716169
178.36850,18.19666367
178.36900,-0.1150007913
178.36950,-24.225359
178.37000,-50.47207806
178.37050,-62.98504878
178.37100,-53.82921655
178.37150,-34.60196886
178.37200,-18.73185966
178.37250,-0.420195199
178.37300,27.04730149
178.37350,50.54727089
178.37400,45.96935477
178.37450,15.449914
178.37500,-12.3227771
178.37550,-18.42666525
178.37600,-9.57602743
178.37650,-2.251361645
178.37700,-3.166944868
178.37750,-9.881221838
178.37800,-18.73185966
178.37850,-24.53055341
178.37900,-23.92016459
178.37950,-17.20588762
178.38000,-9.881221838
178.38050,-4.387722499
178.38100,1.410971247
178.38150,7.209664994
178.38200,9.651220255
178.38250,4.462915324
178.38300,-7.744860984
178.38350,-21.78380374
178.38400,-26.97210867
178.38450,-22.69938696
178.38500,-25.75133104
178.38550,-45.58896754
178.38600,-59.9331047
178.38650,-34.29677445
178.38700,27.3524959
178.38750,79.84593403
178.38800,88.39137744
178.38850,65.80699127
178.38900,40.47585543
178.38950,19.11224689
178.39000,-5.60850013
178.39050,-31.85521919
178.39100,-52.60843892
178.39150,-66.03699285
178.39200,-67.56296489
178.39250,-47.72532839
178.39300,-13.23836032
178.39350,10.87199789
178.39400,16.67069163
178.39450,28.57327353
178.39500,66.11218568
178.39550,105.1770699
178.39600,110.3653748
178.39650,83.81346133
178.39700,56.65115904
178.39750,44.13818833
178.39800,33.15118965
178.39850,15.75510841
178.39900,0.1901936164
178.39950,-8.965638615
178.40000,-18.42666525
178.40050,-31.55002478
178.40100,-42.23182905
178.40150,-46.19935635
178.40200,-45.58896754
178.40250,-40.40066261
178.40300,-28.49808071
178.40350,-12.01758269
178.40400,0.8005824318
178.40450,5.378498547
178.40500,2.32655447
178.40550,-6.218888945
178.40600,-18.42666525
178.40650,-28.49808071
178.40700,-29.10846952
178.40750,-19.64744288
178.40800,-7.744860984
178.40850,-2.251361645
178.40900,-5.303305722
178.40950,-10.79680506
178.41000,-12.01758269
178.41050,-8.050055392
178.41100,-4.082528091
178.41150,1.410971247
178.41200,19.11224689
178.41250,49.63168766
178.41300,72.21607383
178.41350,65.80699127
178.41400,37.72910576
178.41450,16.97588604
178.41500,16.06030282
178.41550,19.4174413
178.41600,9.651220255
178.41650,-8.050055392
178.41700,-19.64744288
178.41750,-20.2578317
178.41800,-15.06952677
178.41850,-8.660444207
178.41900,-4.082528091
178.41950,-7.134472168
178.42000,-17.20588762
178.42050,-24.225359
178.42100,-21.47860933
178.42150,-14.45913795
178.42200,-12.93316591
178.42250,-19.03705407
178.42300,-27.58249748
178.42350,-34.90716327
178.42400,-38.26430175
178.42450,-34.60196886
178.42500,-25.14094222
178.42550,-15.06952677
178.42600,-5.60850013
178.42650,6.904470586
178.42700,21.55380216
178.42750,29.18366235
178.42800,28.26807912
178.42850,27.04730149
178.42900,29.18366235
178.42950,25.82652386
178.43000,11.4823867
178.43050,-5.303305722
178.43100,-14.15394355
178.43150,-14.76433236
178.43200,-13.54355473
178.43250,-12.3227771
178.43300,-13.23836032
178.43350,-22.08899815
178.43400,-37.95910735
178.43450,-50.77727247
178.43500,-52.91363332
178.43550,-49.55649484
178.43600,-45.58896754
178.43650,-33.68638564
178.43700,-5.303305722
178.43750,31.93041202
178.43800,56.65115904
178.43850,51.76804852
178.43900,20.63821893
178.43950,-9.881221838
178.44000,-7.134472168
178.44050,36.81352254
178.44100,90.22254389
178.44150,107.9238195
178.44200,78.6251564
178.44250,30.09924557
178.44300,-10.18641625
178.44350,-36.73832972
178.44400,-47.42013399
178.44450,-35.21235768
178.44500,-4.998111315
178.44550,19.11224689
178.44600,18.19666367
178.44650,-4.387722499
178.44700,-32.77080242
178.44750,-52.91363332
178.44800,-55.35518859
178.44850,-35.82274649
178.44900,-8.050055392
178.44950,5.683692955
178.45000,1.716165655
178.45050,-4.082528091
178.45100,-2.861750461
178.45150,-5.913694538
178.45200,-21.47860933
178.45250,-38.26430175
178.45300,-41.92663465
178.45350,-36.1279409
178.45400,-29.71885834
178.45450,-21.17341492
178.45500,-8.965638615
178.45550,0.8005824318
178.45600,6.29408177
178.45650,12.39796992
178.45700,18.50185808
178.45750,11.4823867
178.45800,-12.62797151
178.45850,-33.68638564
178.45900,-30.93963597
178.45950,-12.62797151
178.46000,-3.166944868
178.46050,-7.134472168
178.46100,-6.218888945
178.46150,12.70316433
178.46200,39.2550778
178.46250,53.29402056
178.46300,46.27454918
178.46350,27.04730149
178.46400,9.346025847
178.46450,3.547332101
178.46500,9.04083144
178.46550,17.89146926
178.46600,24.30055182
178.46650,27.04730149
178.46700,27.3524959
178.46750,23.69016301
178.46800,16.36549722
178.46850,10.26160907
178.46900,11.78758111
178.46950,18.80705249
178.47000,24.60574623
178.47050,27.04730149
178.47100,27.04730149
178.47150,22.16419097
178.47200,10.26160907
178.47250,-3.166944868
178.47300,-9.270833022
178.47350,-8.660444207
178.47400,-14.15394355
178.47450,-33.38119123
178.47500,-56.27077181
178.47550,-65.73179845
178.47600,-58.10193825
178.47650,-44.36818991
178.47700,-33.99158005
178.47750,-27.58249748
178.47800,-16.90069321
178.47850,2.631748878
178.47900,27.65769031
178.47950,46.27454918
178.48000,46.27454918
178.48050,31.3200232
178.48100,17.89146926
178.48150,19.11224689
178.48200,30.09924557
178.48250,36.81352254
178.48300,33.76157846
178.48350,30.70963439
178.48400,34.67716169
178.48450,38.33949458
178.48500,29.79405116
178.48550,11.78758111
178.48600,0.8005824318
178.48650,7.820053809
178.48700,23.99535742
178.48750,27.3524959
178.48800,8.430442624
178.48850,-20.86822052
178.48900,-40.0954682
178.48950,-43.45260668
178.49000,-42.23182905
178.49050,-46.50455076
178.49100,-48.94610602
178.49150,-38.56949616
178.49200,-19.34224848
178.49250,-11.10199947
178.49300,-20.2578317
178.49350,-28.49808071
178.49400,-12.62797151
178.49450,22.16419097
178.49500,45.96935477
178.49550,36.50832813
178.49600,2.936943286
178.49650,-28.1928863
178.49700,-38.26430175
178.49750,-22.08899815
178.49800,14.83952519
178.49850,52.98882615
178.49900,64.28101923
178.49950,40.47585543
178.50000,10.87199789
178.50050,17.89146926
178.50100,66.7225745
178.50150,115.2484853
178.50200,120.4367903
178.50250,81.98229488
178.50300,32.54080083
178.50350,-1.030584014
178.50400,-20.2578317
178.50450,-32.77080242
178.50500,-38.87469057
178.50550,-35.82274649
178.50600,-29.71885834
178.50650,-28.80327512
178.50700,-33.07599682
178.50750,-38.56949616
178.50800,-48.33571721
178.50850,-63.29024319
178.50900,-70.30971456
178.50950,-52.91363332
178.51000,-12.93316591
178.51050,25.52132946
178.51100,44.74857714
178.51150,49.93688207
178.51200,56.65115904
178.51250,65.19660246
178.51300,61.22907516
178.51350,36.20313373
178.51400,-0.1150007913
178.51450,-31.85521919
178.51500,-49.25130043
178.51550,-55.04999418
178.51600,-57.79674385
178.51650,-60.23829911
178.51700,-55.9655774
178.51750,-37.04352412
178.51800,-7.439666576
178.51850,15.14471959
178.51900,18.50185808
178.51950,5.988887363
178.52000,-8.355249799
178.52050,-17.20588762
178.52100,-21.78380374
178.52150,-24.53055341
178.52200,-25.44613663
178.52250,-28.80327512
178.52300,-40.0954682
178.52350,-54.13441095
178.52400,-55.35518859
178.52450,-36.1279409
178.52500,-8.965638615
178.52550,7.209664994
178.52600,9.956414663
178.52650,11.78758111
178.52700,20.94341334
178.52750,30.40443998
178.52800,30.09924557
178.52850,21.55380216
178.52900,14.22913637
178.52950,10.26160907
178.53000,4.462915324
178.53050,-3.777333684
178.53100,-9.881221838
178.53150,-10.79680506
178.53200,-11.10199947
178.53250,-15.98510999
178.53300,-21.78380374
178.53350,-20.56302611
178.53400,-12.3227771
178.53450,-4.387722499
178.53500,-2.251361645
178.53550,-2.861750461
178.53600,-1.335778422
178.53650,1.105776839
178.53700,3.242137693
178.53750,6.904470586
178.53800,14.22913637
178.53850,19.4174413
178.53900,12.09277552
178.53950,-5.913694538
178.54000,-23.30977578
178.54050,-29.41366393
178.54100,-25.44613663
178.54150,-17.81627644
178.54200,-10.18641625
178.54250,-2.556556053
178.54300,1.716165655
178.54350,3.547332101
178.54400,6.29408177
178.54450,10.26160907
178.54500,9.956414663
178.54550,4.768109732
178.54600,-0.1150007913
178.54650,-1.030584014
178.54700,-4.998111315
178.54750,-16.90069321
178.54800,-24.83574782
178.54850,-11.10199947
178.54900,23.3849686
178.54950,58.7875199
178.55000,75.26801791
178.55050,71.30049061
178.55100,56.65115904
178.55150,39.2550778
178.55200,21.55380216
178.55250,5.683692955
178.55300,-7.744860984
178.55350,-21.47860933
178.55400,-37.34871853
178.55450,-48.94610602
178.55500,-47.11493958
178.55550,-30.32924715
178.55600,-11.10199947
178.55650,-0.1150007913
178.55700,3.852526509
178.55750,4.157720917
178.55800,-3.777333684
178.55850,-27.58249748
178.55900,-57.18635503
178.55950,-68.17335371
178.56000,-51.69285569
178.56050,-24.225359
178.56100,-8.965638615
178.56150,-9.270833022
178.56200,-12.3227771
178.56250,-8.660444207
178.56300,1.716165655
178.56350,14.83952519
178.56400,26.13171827
178.56450,31.62521761
178.56500,31.3200232
178.56550,29.79405116
178.56600,29.18366235
178.56650,27.65769031
178.56700,25.21613505
178.56750,26.43691268
178.56800,32.23560643
178.56850,33.76157846
178.56900,24.91094064
178.56950,11.4823867
178.57000,3.852526509
178.57050,2.32655447
178.57100,-0.1150007913
178.57150,-4.387722499
178.57200,-4.998111315
178.57250,2.021360063
178.57300,10.56680348
178.57350,12.39796992
178.57400,7.820053809
178.57450,6.904470586
178.57500,20.63821893
178.57550,49.02129885
178.57600,74.6576291
178.57650,75.87840673
178.57700,45.96935477
178.57750,2.631748878
178.57800,-27.58249748
178.57850,-33.07599682
178.57900,-23.30977578
178.57950,-18.42666525
178.58000,-26.97210867
178.58050,-39.79027379
178.58100,-41.31624583
178.58150,-26.97210867
178.58200,-4.692916907
178.58250,14.22913637
178.58300,26.74210709
178.58350,32.84599524
178.58400,33.15118965
178.58450,28.26807912
178.58500,21.24860775
178.58550,16.36549722
178.58600,16.67069163
178.58650,18.80705249
178.58700,15.75510841
178.58750,4.157720917
178.58800,-9.270833022
178.58850,-15.37472118
178.58900,-12.93316591
178.58950,-8.050055392
178.59000,-3.472139276
178.59050,2.631748878
178.59100,7.820053809
178.59150,4.768109732
178.59200,-4.998111315
178.59250,-14.15394355
178.59300,-23.30977578
178.59350,-40.0954682
178.59400,-56.57596622
178.59450,-52.60843892
178.59500,-27.88769189
178.59550,-8.355249799
178.59600,-8.965638615
178.59650,-7.439666576
178.59700,16.97588604
178.59750,45.05377155
178.59800,42.30702188
178.59850,14.83952519
178.59900,0.8005824318
178.59950,13.00835874
178.60000,24.60574623
178.60050,16.67069163
178.60100,9.651220255
178.60150,24.60574623
178.60200,48.10571563
178.60250,52.98882615
178.60300,36.50832813
178.60350,18.80705249
178.60400,9.956414663
178.60450,1.716165655
178.60500,-11.71238828
178.60550,-23.92016459
178.60600,-27.58249748
178.60650,-26.05652545
178.60700,-24.83574782
178.60750,-24.225359
178.60800,-21.17341492
178.60850,-17.81627644
178.60900,-15.06952677
178.60950,-11.40719388
178.61000,-3.777333684
178.61050,6.599276178
178.61100,14.53433078
178.61150,13.92394196
178.61200,2.631748878
178.61250,-14.15394355
178.61300,-27.58249748
178.61350,-30.63444156
178.61400,-28.80327512
178.61450,-31.55002478
178.61500,-36.43313531
178.61550,-26.05652545
178.61600,8.430442624
178.61650,53.59921496
178.61700,81.67710047
178.61750,78.01476758
178.61800,48.41091003
178.61850,10.26160907
178.61900,-21.78380374
178.61950,-41.62144024
178.62000,-49.86168925
178.62050,-52.30324451
178.62100,-51.9980501
178.62150,-51.38766129
178.62200,-52.30324451
178.62250,-54.74479977
178.62300,-44.97857872
178.62350,-5.913694538
178.62400,55.43038141
178.62450,100.9043482
178.62500,93.88487678
178.62550,42.61221629
178.62600,-7.744860984
178.62650,-25.75133104
178.62700,-17.81627644
178.62750,-8.660444207
178.62800,-7.439666576
178.62850,-6.218888945
178.62900,-0.7253896067
178.62950,4.768109732
178.63000,8.735637032
178.63050,15.14471959
178.63100,23.99535742
178.63150,26.74210709
178.63200,19.11224689
178.63250,8.430442624
178.63300,1.716165655
178.63350,-8.355249799
178.63400,-35.51755208
178.63450,-72.75126982
178.63500,-94.11487836
178.63550,-86.79021258
178.63600,-65.12140963
178.63650,-49.25130043
178.63700,-37.95910735
178.63750,-16.59549881
178.63800,14.83952519
178.63850,40.78104984
178.63900,49.93688207
178.63950,46.88493799
178.64000,38.94988339
178.64050,27.96288472
178.64100,13.31355315
178.64150,-1.335778422
178.64200,-12.93316591
178.64250,-20.2578317
178.64300,-21.47860933
178.64350,-16.59549881
178.64400,-7.744860984
178.64450,-1.946167238
178.64500,-2.861750461
178.64550,-5.913694538
178.64600,-1.64097283
